"","Abdomen","Audio.Volume.dB","ECG","Flow","Heart.Rate","Left.Leg","PosAngle","Pulse","Saturation","Thermistor","Thorax","X.Axis","Y.Axis","Z.Axis","Acceleration..X.","Acceleration..Y.","Acceleration..Z.","Impedance","Stimulation","Position","Phasic.Amplitude","original_time","stim_numeric","parsed_time","time_only","corrected_stim","stim_binary"
"1","0","57.0451","0.0038","-0.0364","65.147","0.0002","13.0395","64.997","90.9957","0.0343","0","0.2183","-0.9427","-0.2072","-1.8849","1.9083","9.6909","7.6406","312.854","0","0","9:17:56 PM",312.854,2025-05-29 21:17:56,21:17:56,0,0
"2","0","57.3543","0.0037","0.1454","66.1003","0.0003","13.3593","64.9877","91.038","0.0342","0","0.2238","-0.9424","-0.2081","-1.8833","1.92","9.7044","7.6505","312.5715","0","0","9:17:58 PM",312.5715,2025-05-29 21:17:58,21:17:58,0,0
"3","0.0001","58.0027","0.0038","0.0998","66.299","0.0003","13.107","65.0084","90.7094","0.0349","0","0.2201","-0.9454","-0.2002","-1.8434","1.9166","9.7001","7.702","312.291","0","0","9:17:58 PM",312.291,2025-05-29 21:17:58,21:17:58,0,0
"4","0","58.0088","0.0038","-0.1838","66.5445","0.0002","13.1446","64.9586","90.0877","0.035","0","0.2202","-0.9429","-0.2053","-1.898","1.9312","9.6927","7.6571","312.0095","0","0","9:17:59 PM",312.0095,2025-05-29 21:17:59,21:17:59,0,0
"5","0","57.0002","0.0038","-0.0411","66.3536","0.0003","13.1828","65.2855","89.9863","0.0345","0","0.2209","-0.9432","-0.2101","-1.8573","1.9162","9.7068","7.6596","311.727","0","0","9:18:01 PM",311.727,2025-05-29 21:18:01,21:18:01,0,0
"6","0","57.6066","0.0038","0.1434","66.7781","0.0003","13.4132","65.9143","89.9974","0.0344","0","0.2246","-0.9416","-0.2091","-1.8176","1.9102","9.7084","7.6772","311.4439","0","0","9:18:01 PM",311.4439,2025-05-29 21:18:01,21:18:01,0,0
"7","0.0001","57.708","0.0038","0.0005","67.2344","0.0003","13.3261","66.016","90.0264","0.0351","0","0.2234","-0.9435","-0.2034","-1.8324","1.9227","9.6971","7.6968","311.1613","0","0","9:18:02 PM",311.1613,2025-05-29 21:18:02,21:18:02,0,0
"8","0","58.351","0.0038","-0.1187","67.0394","0.0003","13.2715","66.0087","89.7245","0.0351","0","0.2222","-0.9424","-0.2074","-1.8723","1.9278","9.6959","7.6618","310.8809","0","0","9:18:04 PM",310.8809,2025-05-29 21:18:04,21:18:04,0,0
"9","0","57.1571","0.0037","-0.0307","66.8583","0.0003","13.3209","65.9724","89.0905","0.0347","0","0.223","-0.9421","-0.2115","-1.8553","1.8913","9.7118","7.6541","310.5994","0","0","9:18:04 PM",310.5994,2025-05-29 21:18:04,21:18:04,0,0
"10","0","56.2308","0.0038","0.0415","67.0269","0.0003","13.3738","66.2702","88.9524","0.0345","0","0.224","-0.9418","-0.2096","-1.854","1.8699","9.7176","7.6505","310.3168","0","0","9:18:05 PM",310.3168,2025-05-29 21:18:05,21:18:05,0,0
"11","0.0001","57.5452","0.0037","0.0597","67.4203","0.0003","13.4118","66.9093","88.9969","0.035","0","0.2248","-0.9428","-0.2067","-1.8305","1.8817","9.7042","7.6875","310.0337","0","0","9:18:07 PM",310.0337,2025-05-29 21:18:07,21:18:07,0,0
"12","0","57.2706","0.0038","-0.0902","67.1057","0.0003","13.4689","67.0318","88.9669","0.0351","0","0.2254","-0.9411","-0.2114","-1.8829","1.872","9.7131","7.6517","309.7511","0","0","9:18:08 PM",309.7511,2025-05-29 21:18:08,21:18:08,0,0
"13","0","56.5118","0.0038","-0.0265","66.5468","0.0003","13.4176","66.9975","88.998","0.0348","0","0.2242","-0.9397","-0.2118","-1.8499","1.8641","9.7174","7.6766","309.4707","0","0","9:18:08 PM",309.4707,2025-05-29 21:18:08,21:18:08,0,0
"14","0","56.7812","0.0038","-0.0115","66.9788","0.0003","13.4723","67.0173","88.9279","0.0346","0","0.2251","-0.9401","-0.2108","-1.8485","1.8778","9.7108","7.6675","309.1892","0","0","9:18:09 PM",309.1892,2025-05-29 21:18:09,21:18:09,0,0
"15","0","57.2873","0.0038","-0.0169","66.6679","0.0003","13.4681","67.0058","89.2298","0.0345","0","0.2252","-0.9403","-0.2151","-1.8655","1.8822","9.7102","7.6574","308.9066","0","0","9:18:11 PM",308.9066,2025-05-29 21:18:11,21:18:11,0,0
"16","-0.0001","57.327","0.0037","-0.0048","66.483","0.0003","13.3448","67.0141","89.8582","0.0342","0","0.2231","-0.9406","-0.2157","-1.8717","1.8706","9.7068","7.6586","308.6235","0","0","9:18:12 PM",308.6235,2025-05-29 21:18:12,21:18:12,0,0
"17","0","57.4656","0.0037","0.0035","66.483","0.0003","13.262","67.0017","90.0275","0.034","0","0.222","-0.9421","-0.2164","-1.8855","1.8877","9.709","7.6446","308.341","0","0","9:18:12 PM",308.341,2025-05-29 21:18:12,21:18:12,0,0
"18","0","57.1727","0.0038","0.0588","66.854","0.0003","13.3354","67.0152","89.9473","0.0342","0","0.223","-0.9408","-0.2132","-1.8792","1.9063","9.6926","7.6416","308.061","0","0","9:18:13 PM",308.061,2025-05-29 21:18:13,21:18:13,0,0
"19","0","56.5571","0.0037","-0.0316","66.1218","0.0003","13.2338","67.0058","90.2169","0.0346","0","0.2213","-0.9408","-0.2173","-1.9076","1.9289","9.6894","7.6296","307.779","0","0","9:18:15 PM",307.779,2025-05-29 21:18:15,21:18:15,0,0
"20","0","57.1452","0.0037","-0.0113","66.2362","0.0003","13.2835","67.0183","90.8631","0.0344","0","0.2216","-0.9392","-0.2181","-1.8881","1.9257","9.6991","7.6663","307.4964","0","0","9:18:15 PM",307.4964,2025-05-29 21:18:15,21:18:15,0,0
"21","0","57.5819","0.0037","0.0046","66.2982","0.0003","13.1934","66.9965","91.0291","0.0342","0","0.2203","-0.9398","-0.2184","-1.8981","1.9791","9.676","7.6427","307.2133","0","0","9:18:17 PM",307.2133,2025-05-29 21:18:17,21:18:17,0,0
"22","0","57.1662","0.0037","0.173","66.6665","0.0003","13.0969","67.0297","91.1695","0.0343","0","0.2192","-0.9423","-0.2146","-1.8844","1.9711","9.6904","7.6414","306.9308","0","0","9:18:17 PM",306.9308,2025-05-29 21:18:17,21:18:17,0,0
"23","0.0001","57.9073","0.0037","-0.1004","66.9788","0.0003","12.9982","66.4611","91.4937","0.0349","0","0.2175","-0.9426","-0.2152","-1.9172","1.9654","9.6745","7.6327","306.6509","0","0","9:18:18 PM",306.6509,2025-05-29 21:18:18,21:18:18,0,0
"24","0","57.2395","0.0036","-0.0346","66.6679","0.0003","13.1295","65.962","91.1918","0.0346","0","0.2195","-0.9408","-0.2168","-1.8946","1.9666","9.6798","7.6638","306.3688","0","0","9:18:20 PM",306.3688,2025-05-29 21:18:20,21:18:20,0,0
"25","0","56.9692","0.0036","-0.0148","66.6679","0.0003","13.197","65.9651","90.9912","0.0344","0","0.2202","-0.939","-0.2185","-1.8954","1.9879","9.6804","7.6628","306.0863","0","0","9:18:20 PM",306.0863,2025-05-29 21:18:20,21:18:20,0,0
"26","0","58.7377","0.0036","0.1466","66.854","0.0003","13.1541","66.1342","91.018","0.0344","0","0.2203","-0.9432","-0.2159","-1.8567","1.9991","9.6858","7.6517","305.8032","0","0","9:18:21 PM",305.8032,2025-05-29 21:18:21,21:18:21,0,0
"27","0.0001","58.0141","0.0036","-0.0239","67.2276","0.0003","13.1251","66.7921","91.0414","0.0351","0","0.2196","-0.942","-0.2124","-1.8727","1.9805","9.68","7.6673","305.5206","0","0","9:18:23 PM",305.5206,2025-05-29 21:18:23,21:18:23,0,0
"28","0","57.3534","0.0035","-0.0794","66.7949","0.0002","13.1206","67.0318","90.8631","0.0348","0","0.2197","-0.9426","-0.2156","-1.8965","1.9857","9.6784","7.6406","305.2407","0","0","9:18:23 PM",305.2407,2025-05-29 21:18:23,21:18:23,0,0
"29","0","57.2453","0.0034","-0.0236","66.6679","0.0003","13.1677","66.9965","90.1879","0.0344","0","0.2202","-0.9413","-0.2163","-1.8814","1.9748","9.6898","7.6616","304.9586","0","0","9:18:24 PM",304.9586,2025-05-29 21:18:24,21:18:24,0,0
"30","0","57.7851","0.0035","0.1461","66.9769","0.0003","13.1262","67.0193","89.9896","0.0342","0","0.22","-0.9434","-0.2126","-1.8882","1.9424","9.6963","7.6561","304.6761","0","0","9:18:26 PM",304.6761,2025-05-29 21:18:26,21:18:26,0,0
"31","0.0001","58.8807","0.0035","0.0146","67.2281","0.0003","12.9683","67.0058","89.8771","0.0348","0","0.217","-0.9423","-0.2087","-1.8585","1.9673","9.6867","7.684","304.393","0","0","9:18:27 PM",304.393,2025-05-29 21:18:27,21:18:27,0,0
"32","0","57.8316","0.0035","-0.1276","66.6069","0.0003","13.064","67.0141","89.2153","0.0348","0","0.2189","-0.9431","-0.214","-1.9453","1.9603","9.6816","7.6261","304.1104","0","0","9:18:27 PM",304.1104,2025-05-29 21:18:27,21:18:27,0,0
"33","0","56.5947","0.0035","-0.0265","66.3592","0.0003","13.0166","67.0141","88.949","0.0344","0","0.2173","-0.9403","-0.216","-1.9124","1.9655","9.6849","7.6337","303.8305","0","0","9:18:28 PM",303.8305,2025-05-29 21:18:28,21:18:28,0,0
"34","0","57.1668","0.0035","0.0337","66.6679","0.0003","12.958","67.0058","88.978","0.0342","0","0.217","-0.9432","-0.2132","-1.9029","1.9596","9.6862","7.6404","303.5485","0","0","9:18:30 PM",303.5485,2025-05-29 21:18:30,21:18:30,0,0
"35","0.0001","57.9057","0.0035","0.193","66.8779","0.0003","13.0947","67.0162","88.978","0.0345","0","0.2193","-0.9428","-0.2087","-1.8665","1.9504","9.6944","7.6761","303.2659","0","0","9:18:31 PM",303.2659,2025-05-29 21:18:31,21:18:31,0,0
"36","0","58.0177","0.0035","-0.1735","66.6692","0.0002","13.1056","66.9996","88.9802","0.0348","0","0.2195","-0.9431","-0.2107","-1.8925","1.9645","9.6823","7.6668","302.9828","0","0","9:18:31 PM",302.9828,2025-05-29 21:18:31,21:18:31,0,0
"37","0","58.3965","0.0034","-0.0435","65.9956","0.0003","13.3699","67.0349","88.988","0.0343","0","0.223","-0.9381","-0.2141","-1.8602","1.9372","9.7013","7.6863","302.7002","0","0","9:18:32 PM",302.7002,2025-05-29 21:18:32,21:18:32,0,0
"38","0","57.5478","0.0034","0.0053","65.9337","0.0003","13.3652","66.8969","88.9646","0.0341","0","0.2235","-0.9407","-0.2131","-1.8656","1.9268","9.6988","7.6754","302.4203","0","0","9:18:34 PM",302.4203,2025-05-29 21:18:34,21:18:34,0,0
"39","0","58.2817","0.0035","0.1091","66.2362","0.0003","13.1769","66.2691","89.0749","0.0343","0","0.2206","-0.9424","-0.2116","-1.8733","1.9277","9.6919","7.674","302.1383","0","0","9:18:34 PM",302.1383,2025-05-29 21:18:34,21:18:34,0,0
"40","0","57.5207","0.0034","-0.1025","65.6952","0.0003","13.2511","65.9589","89.6933","0.0345","0","0.2217","-0.9413","-0.2138","-1.8754","1.9579","9.6962","7.6663","301.8557","0","0","9:18:36 PM",301.8557,2025-05-29 21:18:36,21:18:36,0,0
"41","0","58.5561","0.0034","-0.024","65.4552","0.0003","13.3688","66.0056","90.0386","0.0342","0","0.2237","-0.9411","-0.2168","-1.8365","1.9541","9.6969","7.7064","301.5726","0","0","9:18:36 PM",301.5726,2025-05-29 21:18:36,21:18:36,0,0
"42","0","57.0133","0.0034","-0.0126","64.8659","0.0003","13.2796","65.9859","89.9829","0.034","0","0.2222","-0.9417","-0.2173","-1.8602","1.9443","9.7064","7.6823","301.2885","0","0","9:18:37 PM",301.2885,2025-05-29 21:18:37,21:18:37,0,0
"43","0","58.272","0.0034","0.0881","65.0421","0.0003","13.1786","65.9973","90.0175","0.0338","0","0.2204","-0.9416","-0.213","-1.8824","1.9587","9.6909","7.6542","300.9964","0","0","9:18:39 PM",300.9964,2025-05-29 21:18:39,21:18:39,0,0
"44","0.0001","57.5502","0.0035","0.0805","66.1159","0.0003","13.2274","65.99","89.9796","0.0343","0","0.2216","-0.9426","-0.208","-1.8773","1.9365","9.6903","7.6732","300.7138","0","0","9:18:39 PM",300.7138,2025-05-29 21:18:39,21:18:39,0,0
"45","0","57.6158","0.0035","-0.107","65.9349","0.0003","13.2085","66.0014","90.0732","0.0344","0","0.2211","-0.9421","-0.2134","-1.9089","1.9427","9.689","7.665","300.4312","0","0","9:18:40 PM",300.4312,2025-05-29 21:18:40,21:18:40,0,0
"46","0","57.0231","0.0034","-0.0278","65.5717","0.0003","13.2486","66.0014","90.6704","0.0341","0","0.2216","-0.9414","-0.2146","-1.8842","1.9251","9.6922","7.6875","300.1487","0","0","9:18:42 PM",300.1487,2025-05-29 21:18:42,21:18:42,0,0
"47","-0.0001","56.8241","0.0033","-0.0141","65.5717","0.0003","13.2336","66.0014","91.038","0.0339","0","0.2212","-0.9406","-0.2188","-1.8484","1.9777","9.687","7.7224","299.8656","0","0","9:18:42 PM",299.8656,2025-05-29 21:18:42,21:18:42,0,0
"48","0","57.4708","0.0034","0.0114","66.1747","0.0003","13.3842","66.0014","91.0057","0.0338","0","0.224","-0.9417","-0.2143","-1.863","1.9805","9.6914","7.6674","299.5862","0","0","9:18:43 PM",299.5862,2025-05-29 21:18:43,21:18:43,0,0
"49","0","57.9893","0.0035","0.0229","66.2982","0.0003","13.4756","66.0014","91.0191","0.0339","0","0.2257","-0.9421","-0.2101","-1.8465","1.9428","9.6952","7.6737","299.3036","0","0","9:18:45 PM",299.3036,2025-05-29 21:18:45,21:18:45,0,0
"50","0","57.2837","0.0035","-0.0354","66.2978","0.0003","13.361","65.9931","91.0113","0.0341","0","0.2231","-0.9394","-0.2158","-1.8805","1.952","9.6958","7.6462","299.0211","0","0","9:18:46 PM",299.0211,2025-05-29 21:18:46,21:18:46,0,0
"51","0","56.9184","0.0034","-0.0126","66.2964","0.0003","13.1884","65.9973","91.0079","0.0338","0","0.2206","-0.9412","-0.2164","-1.8916","1.9388","9.6936","7.6495","298.7385","0","0","9:18:46 PM",298.7385,2025-05-29 21:18:46,21:18:46,0,0
"52","0","57.7851","0.0035","-0.0034","66.4297","0.0003","13.3108","65.9911","91.0213","0.0335","0","0.2223","-0.9393","-0.2174","-1.8706","1.9723","9.6981","7.6519","298.4554","0","0","9:18:47 PM",298.4554,2025-05-29 21:18:47,21:18:47,0,0
"53","0","58.5687","0.0035","0.1025","67.1095","0.0003","13.1987","65.9983","90.9756","0.0334","0","0.2214","-0.9439","-0.2111","-1.8803","1.97","9.6907","7.6527","298.176","0","0","9:18:49 PM",298.176,2025-05-29 21:18:49,21:18:49,0,0
"54","0","57.0639","0.0035","-0.0257","67.2234","0.0003","13.308","65.9859","90.3963","0.034","0","0.2229","-0.9423","-0.2107","-1.8773","1.9518","9.6997","7.6685","297.8935","0","0","9:18:50 PM",297.8935,2025-05-29 21:18:50,21:18:50,0,0
"55","0","56.6847","0.0035","-0.0342","67.0411","0.0003","13.3153","66.0336","89.9729","0.034","0","0.2227","-0.9408","-0.2144","-1.8751","1.9798","9.6873","7.6725","297.6109","0","0","9:18:50 PM",297.6109,2025-05-29 21:18:50,21:18:50,0,0
"56","0","56.8998","0.0035","-0.0159","66.8467","0.0003","13.2893","66.6043","90.0097","0.0337","0","0.2222","-0.9408","-0.2176","-1.878","1.983","9.686","7.6673","297.3283","0","0","9:18:51 PM",297.3283,2025-05-29 21:18:51,21:18:51,0,0
"57","0","57.0927","0.0034","-0.0007","66.9817","0.0003","13.2603","67.0287","89.9941","0.0334","0","0.2219","-0.9414","-0.2154","-1.8691","1.9854","9.6897","7.6588","297.0452","0","0","9:18:53 PM",297.0452,2025-05-29 21:18:53,21:18:53,0,0
"58","0","56.9612","0.0034","0.1729","67.0415","0.0003","13.2352","66.9934","90.0041","0.0336","0","0.2217","-0.9426","-0.2099","-1.8667","1.9634","9.6908","7.6687","296.7658","0","0","9:18:53 PM",296.7658,2025-05-29 21:18:53,21:18:53,0,0
"59","0.0001","57.9154","0.0034","-0.0421","67.225","0.0003","13.2472","67.0069","89.9963","0.0342","0","0.2219","-0.9428","-0.2082","-1.8594","1.9521","9.6945","7.6784","296.4833","0","0","9:18:55 PM",296.4833,2025-05-29 21:18:55,21:18:55,0,0
"60","0","57.5398","0.0034","-0.0731","66.7306","0.0003","13.1951","67.0027","90.0153","0.034","0","0.2207","-0.9413","-0.2157","-1.8854","1.9705","9.6909","7.6638","296.2007","0","0","9:18:55 PM",296.2007,2025-05-29 21:18:55,21:18:55,0,0
"61","0","56.2034","0.0033","-0.0263","67.0394","0.0003","13.0961","67.0017","89.9818","0.0337","0","0.2189","-0.9411","-0.2164","-1.8894","1.994","9.6843","7.6764","295.9181","0","0","9:18:56 PM",295.9181,2025-05-29 21:18:56,21:18:56,0,0
"62","0","56.818","0.0033","0.0547","67.1743","0.0003","13.1491","66.9996","89.4348","0.0335","0","0.2203","-0.943","-0.2115","-1.8887","1.9927","9.6751","7.6549","295.635","0","0","9:18:58 PM",295.635,2025-05-29 21:18:58,21:18:58,0,0
"63","0.0001","58.582","0.0034","0.1259","67.7995","0.0003","13.0648","66.9996","88.978","0.0338","0","0.2189","-0.9437","-0.2077","-1.8758","1.9542","9.7012","7.6583","295.3557","0","0","9:18:58 PM",295.3557,2025-05-29 21:18:58,21:18:58,0,0
"64","0","63.6058","0.0034","-0.1164","67.5983","0.0002","13.2483","67.0006","89.007","0.0341","0","0.2218","-0.9423","-0.2119","-1.8551","1.9789","9.6824","7.6818","295.0731","0","0","9:18:59 PM",295.0731,2025-05-29 21:18:59,21:18:59,0,0
"65","0","57.4286","0.0034","0.0305","67.6132","0.0002","13.1951","66.9934","88.9858","0.034","0","0.2209","-0.9421","-0.2152","-1.8808","1.9917","9.6814","7.6754","294.7905","0","0","9:19:01 PM",294.7905,2025-05-29 21:19:01,21:19:01,0,0
"66","0.0001","59.0596","0.0033","0.1765","68.1187","0.0003","13.0587","67.0069","88.4633","0.0343","0","0.2189","-0.9441","-0.205","-1.8844","1.9721","9.6896","7.6519","294.508","0","0","9:19:01 PM",294.508,2025-05-29 21:19:01,21:19:01,0,0
"67","0.0001","57.8658","0.0034","-0.061","68.1841","0.0003","13.0091","67.5184","87.982","0.0345","0","0.2183","-0.945","-0.1991","-1.9408","1.9688","9.6794","7.6415","294.2249","0","0","9:19:02 PM",294.2249,2025-05-29 21:19:02,21:19:02,0,0
"68","0","58.7028","0.0034","-0.0526","69.3234","0.0003","13.18","68.0019","88.0009","0.0344","0","0.221","-0.9433","-0.1991","-1.8973","2.0048","9.6849","7.6669","293.9455","0","0","9:19:03 PM",293.9455,2025-05-29 21:19:03,21:19:03,0,0
"69","-0.0001","66.2363","0.0035","-0.187","70.1762","0.0003","13.897","68.0019","88.0009","0.0341","0","0.2329","-0.9411","-0.2066","-1.6671","2.1312","9.6909","7.8234","293.6629","0","0","9:19:05 PM",293.6629,2025-05-29 21:19:05,21:19:05,0,0
"70","-0.0001","67.9337","0.0034","0.0245","71.2693","0.0005","9.778","68.0019","88.0009","0.0335","0.0001","0.1644","-0.9504","-0.2195","-2.3339","1.9537","9.5741","7.6938","293.3804","0","0","9:19:05 PM",293.3804,2025-05-29 21:19:05,21:19:05,0,0
"71","0","68.9788","0.0033","0.2685","72.5217","0.0012","7.4798","68.501","88.5011","0.0337","0","0.1262","-0.9615","-0.2004","-2.5579","1.8884","9.5484","7.5683","293.0978","0","0","9:19:06 PM",293.0978,2025-05-29 21:19:06,21:19:06,0,0
"72","0","62.385","0.0033","-0.2302","73.4802","0.0013","8.0166","69.4992","89.0092","0.034","0","0.1353","-0.961","-0.2105","-2.6905","1.9635","9.498","7.5264","292.8147","0","0","9:19:08 PM",292.8147,2025-05-29 21:19:08,21:19:08,0,0
"73","0","60.1531","0.0033","-0.0375","72.056","0.0012","8.4971","69.9879","89.0047","0.0336","0","0.1434","-0.9601","-0.2113","-2.6449","1.9344","9.5142","7.525","292.5358","0","0","9:19:09 PM",292.5358,2025-05-29 21:19:09,21:19:09,0,0
"74","0","57.8517","0.0033","0.092","71.5013","0.001","8.3008","70.4715","89.0003","0.0334","0","0.1401","-0.9602","-0.2091","-2.7042","1.9312","9.5016","7.526","292.2527","0","0","9:19:09 PM",292.2527,2025-05-29 21:19:09,21:19:09,0,0
"75","0.0001","59.587","0.0032","0.1183","71.6392","0.0007","7.9346","70.9965","89.0025","0.0339","0","0.1342","-0.9622","-0.2012","-2.6643","1.9795","9.4994","7.563","291.9702","0","0","9:19:10 PM",291.9702,2025-05-29 21:19:10,21:19:10,0,0
"76","0.0001","60.838","0.0032","-0.1669","70.7797","0.0005","8.2157","71.01","88.9992","0.0342","0","0.1388","-0.9609","-0.207","-2.7094","1.9719","9.5009","7.5119","291.6876","0","0","9:19:12 PM",291.6876,2025-05-29 21:19:12,21:19:12,0,0
"77","0","59.3994","0.0031","-0.0418","69.8271","0.0004","8.4946","71.0214","89.0036","0.0338","0","0.1431","-0.9584","-0.2133","-2.6928","1.9608","9.4957","7.5225","291.4045","0","0","9:19:12 PM",291.4045,2025-05-29 21:19:12,21:19:12,0,0
"78","0","59.4345","0.0031","0.0671","68.8979","0.0003","8.3811","71.0089","88.9936","0.0335","0","0.1414","-0.96","-0.2134","-2.6838","1.9493","9.5155","7.5474","291.1257","0","0","9:19:14 PM",291.1257,2025-05-29 21:19:14,21:19:14,0,0
"79","0.0001","61.3693","0.003","0.1254","69.295","0.0003","8.0648","71.0287","89.0025","0.034","0","0.1365","-0.9632","-0.2042","-2.6747","1.9552","9.4848","7.5768","290.8426","0","0","9:19:14 PM",290.8426,2025-05-29 21:19:14,21:19:14,0,0
"80","0","59.3541","0.003","-0.1609","68.8274","0.0003","8.122","70.5763","88.9791","0.0343","0","0.137","-0.9598","-0.2163","-2.7406","1.9999","9.4759","7.5664","290.56","0","0","9:19:15 PM",290.56,2025-05-29 21:19:15,21:19:15,0,0
"81","0","57.4614","0.003","-0.029","67.7813","0.0003","8.2891","70.0429","89.4292","0.0339","0","0.1398","-0.9597","-0.2189","-2.6696","1.9662","9.4948","7.573","290.2774","0","0","9:19:17 PM",290.2774,2025-05-29 21:19:17,21:19:17,0,0
"82","-0.0001","57.0067","0.003","0.0371","67.4135","0.0003","8.3462","69.5957","89.9874","0.0336","0","0.1408","-0.9596","-0.2147","-2.6695","1.9515","9.5075","7.5787","289.9943","0","0","9:19:17 PM",289.9943,2025-05-29 21:19:17,21:19:17,0,0
"83","0","57.715","0.0029","0.3002","67.8153","0.0003","8.0367","69.0313","90.0141","0.0339","0","0.1358","-0.9619","-0.202","-2.6557","1.9454","9.5018","7.5945","289.7155","0","0","9:19:18 PM",289.7155,2025-05-29 21:19:18,21:19:18,0,0
"84","0.0001","58.1503","0.0029","-0.2281","68.1796","0.0003","7.8696","69.0136","89.993","0.0345","0","0.1331","-0.9634","-0.2004","-2.6815","1.9378","9.4957","7.5844","289.4324","0","0","9:19:20 PM",289.4324,2025-05-29 21:19:20,21:19:20,0,0
"85","0","57.7339","0.003","-0.0603","66.9027","0.0003","8.0899","68.6048","90.0052","0.0341","0","0.1366","-0.9609","-0.2127","-2.7063","1.9401","9.4996","7.571","289.1498","0","0","9:19:20 PM",289.1498,2025-05-29 21:19:20,21:19:20,0,0
"86","-0.0001","57.276","0.0029","-0.0246","66.8377","0.0002","8.2573","68.0248","89.9919","0.0338","0","0.1394","-0.9607","-0.2137","-2.6584","1.9399","9.5132","7.5817","288.8673","0","0","9:19:21 PM",288.8673,2025-05-29 21:19:21,21:19:21,0,0
"87","0","56.8127","0.0029","0.1046","66.5854","0.0003","8.1806","67.9739","90.0108","0.0336","0","0.138","-0.9606","-0.212","-2.678","1.9397","9.5079","7.5876","288.5842","0","0","9:19:22 PM",288.5842,2025-05-29 21:19:22,21:19:22,0,0
"88","0.0001","57.9503","0.0029","0.1736","67.7421","0.0003","8.0074","68.0279","89.9662","0.0341","0","0.1355","-0.9633","-0.2011","-2.6395","1.9296","9.5157","7.6114","288.3053","0","0","9:19:24 PM",288.3053,2025-05-29 21:19:24,21:19:24,0,0
"89","0","58.4194","0.0029","-0.1973","66.6224","0.0002","8.0651","67.6367","90.3629","0.0344","0","0.1359","-0.9592","-0.2085","-2.7175","1.9263","9.4979","7.5866","288.0222","0","0","9:19:24 PM",288.0222,2025-05-29 21:19:24,21:19:24,0,0
"90","0","57.5248","0.0029","-0.0458","65.9321","0.0002","8.1109","67.0484","90.9522","0.034","0","0.1369","-0.9612","-0.2146","-2.683","1.9276","9.5021","7.5846","287.7397","0","0","9:19:25 PM",287.7397,2025-05-29 21:19:25,21:19:25,0,0
"91","-0.0001","57.1632","0.0029","-0.0021","65.5431","0.0002","8.1853","66.9913","91.0169","0.0338","0","0.1379","-0.9588","-0.2139","-2.6824","1.9316","9.5129","7.5896","287.4571","0","0","9:19:27 PM",287.4571,2025-05-29 21:19:27,21:19:27,0,0
"92","0","57.7552","0.0029","0.2849","65.9969","0.0002","8.0372","66.9975","90.999","0.034","0","0.1358","-0.9619","-0.2055","-2.6586","1.9347","9.5132","7.598","287.174","0","0","9:19:28 PM",287.174,2025-05-29 21:19:28,21:19:28,0,0
"93","0.0001","58.2447","0.0028","-0.2085","66.035","0.0002","7.9614","67.037","91.0124","0.0345","0","0.1345","-0.9614","-0.2042","-2.6803","1.935","9.5037","7.5957","286.8951","0","0","9:19:28 PM",286.8951,2025-05-29 21:19:28,21:19:28,0,0
"94","0","57.6234","0.0028","-0.0605","64.4152","0.0002","8.1373","66.6717","91.0035","0.0342","0","0.1373","-0.9602","-0.2135","-2.6956","1.9412","9.4916","7.5811","286.612","0","0","9:19:29 PM",286.612,2025-05-29 21:19:29,21:19:29,0,0
"95","-0.0001","57.2782","0.0028","-0.0292","63.5762","0.0002","8.2701","66.0699","91.0102","0.0339","0","0.1394","-0.959","-0.2144","-2.6759","1.9205","9.5165","7.5834","286.3295","0","0","9:19:31 PM",286.3295,2025-05-29 21:19:31,21:19:31,0,0
"96","-0.0001","57.1723","0.0028","0.0532","63.7822","0.0002","8.2665","65.9724","91.0024","0.0337","0","0.1394","-0.9598","-0.2131","-2.6838","1.9271","9.5074","7.5853","286.0469","0","0","9:19:31 PM",286.0469,2025-05-29 21:19:31,21:19:31,0,0
"97","0","57.3838","0.0028","0.1696","65.1605","0.0002","8.0858","66.0336","91.0024","0.034","0","0.137","-0.9643","-0.2047","-2.6608","1.9347","9.5116","7.6089","285.7638","0","0","9:19:33 PM",285.7638,2025-05-29 21:19:33,21:19:33,0,0
"98","0","58.2577","0.0029","-0.1579","65.9474","0.0001","8.0266","65.687","91.0024","0.0344","0","0.1356","-0.9618","-0.2068","-2.6975","1.9385","9.4968","7.5947","285.485","0","0","9:19:33 PM",285.485,2025-05-29 21:19:33,21:19:33,0,0
"99","0","57.1336","0.0029","-0.0433","65.8643","0.0001","8.2294","65.0645","91.0024","0.0341","0","0.1388","-0.9596","-0.2151","-2.6682","1.9268","9.5099","7.589","285.2019","0","0","9:19:34 PM",285.2019,2025-05-29 21:19:34,21:19:34,0,0
"100","-0.0001","56.9207","0.0029","-0.0257","65.5687","0.0001","8.4207","64.9825","91.0024","0.0339","0","0.1417","-0.9574","-0.2144","-2.6414","1.9286","9.5231","7.59","284.9193","0","0","9:19:36 PM",284.9193,2025-05-29 21:19:36,21:19:36,0,0
"101","0","57.3982","0.003","0.0029","65.9691","0.0001","8.3395","64.9638","91.0024","0.0338","0","0.1407","-0.9595","-0.2149","-2.685","1.9603","9.5054","7.5958","284.6367","0","0","9:19:36 PM",284.6367,2025-05-29 21:19:36,21:19:36,0,0
"102","0","57.0527","0.003","0.0431","65.7268","0.0001","8.1756","65.2668","91.0024","0.0341","0","0.1379","-0.9596","-0.2108","-2.6755","1.9564","9.4934","7.6067","284.3536","0","0","9:19:37 PM",284.3536,2025-05-29 21:19:37,21:19:37,0,0
"103","0","57.4216","0.003","-0.0446","64.4755","0.0001","8.2129","65.9008","91.0024","0.0343","0","0.1384","-0.9588","-0.2159","-2.6891","1.9692","9.5029","7.5866","284.0748","0","0","9:19:39 PM",284.0748,2025-05-29 21:19:39,21:19:39,0,0
"104","0","57.5425","0.003","-0.0211","63.64","0.0001","8.3228","66.0709","91.0024","0.034","0","0.1402","-0.9587","-0.2156","-2.6769","1.9561","9.4956","7.5864","283.7917","0","0","9:19:39 PM",283.7917,2025-05-29 21:19:39,21:19:39,0,0
"105","0","58.1877","0.0029","-0.0111","63.2044","0.0002","8.3175","65.7825","91.0024","0.0338","0","0.1401","-0.9591","-0.2159","-2.6692","1.9391","9.5165","7.5864","283.5091","0","0","9:19:40 PM",283.5091,2025-05-29 21:19:40,21:19:40,0,0
"106","0","58.1919","0.0029","0.0036","64.0281","0.0002","8.3395","65.1402","91.0024","0.0336","0","0.1406","-0.9593","-0.2138","-2.6847","1.9646","9.502","7.591","283.2266","0","0","9:19:41 PM",283.2266,2025-05-29 21:19:41,21:19:41,0,0
"107","0","57.5984","0.003","0.0544","64.474","0.0001","8.2492","65.0136","91.0024","0.0338","0","0.1391","-0.9597","-0.2135","-2.6674","1.9785","9.5003","7.6057","282.9435","0","0","9:19:43 PM",282.9435,2025-05-29 21:19:43,21:19:43,0,0
"108","0","56.6843","0.003","-0.0414","64.5174","0.0001","8.3214","64.7822","91.0024","0.0341","0","0.1403","-0.9594","-0.2166","-2.67","1.9688","9.5015","7.5937","282.6646","0","0","9:19:43 PM",282.6646,2025-05-29 21:19:43,21:19:43,0,0
"109","0","57.8238","0.0029","-0.0133","64.1978","0.0001","8.3719","64.0953","91.0135","0.0339","0","0.141","-0.9577","-0.2176","-2.638","1.9486","9.5164","7.598","282.3815","0","0","9:19:44 PM",282.3815,2025-05-29 21:19:44,21:19:44,0,0
"110","0","57.4584","0.0029","-0.0051","63.8887","0.0001","8.5373","63.9521","91.0035","0.0336","0","0.1438","-0.9579","-0.2182","-2.6304","1.9498","9.5242","7.592","282.0989","0","0","9:19:45 PM",282.0989,2025-05-29 21:19:45,21:19:45,0,0
"111","0","58.5112","0.003","0.1849","64.4434","0.0001","8.2737","63.9698","91.0169","0.0336","0","0.1398","-0.961","-0.2133","-2.6678","1.9502","9.5115","7.6067","281.8164","0","0","9:19:47 PM",281.8164,2025-05-29 21:19:47,21:19:47,0,0
"112","0.0001","57.6561","0.0029","0.0968","65.5882","0.0001","8.0542","63.9843","91.0091","0.0343","0","0.1361","-0.9619","-0.2031","-2.6248","1.9238","9.5138","7.6123","281.5333","0","0","9:19:47 PM",281.5333,2025-05-29 21:19:47,21:19:47,0,0
"113","0","59.2046","0.003","-0.1689","65.4403","0.0001","8.2363","63.949","91.0503","0.0344","0","0.1388","-0.9595","-0.2106","-2.7012","1.9331","9.4946","7.5891","281.2544","0","0","9:19:48 PM",281.2544,2025-05-29 21:19:48,21:19:48,0,0
"114","0","63.9737","0.003","-0.0409","64.6655","0.0001","8.2662","64.1607","90.8442","0.034","0","0.1392","-0.9584","-0.2157","-2.6466","1.9467","9.5174","7.5968","280.9713","0","0","9:19:50 PM",280.9713,2025-05-29 21:19:50,21:19:50,0,0
"115","0","60.7721","0.0029","0.1556","65.0813","0.0001","8.1822","64.8227","90.1746","0.0338","0","0.1379","-0.9592","-0.2136","-2.6479","1.9606","9.5141","7.6087","280.6888","0","0","9:19:50 PM",280.6888,2025-05-29 21:19:50,21:19:50,0,0
"116","0.0001","58.1606","0.0029","0.2299","65.7721","0.0001","7.9873","65.1008","89.6119","0.0344","0","0.1349","-0.9621","-0.2048","-2.6091","1.9406","9.5116","7.6394","280.4062","0","0","9:19:52 PM",280.4062,2025-05-29 21:19:52,21:19:52,0,0
"117","0.0001","58.6385","0.0029","-0.2907","65.74","0.0001","7.8448","65.0198","89.1763","0.0347","0","0.1325","-0.9619","-0.2114","-2.6907","1.9693","9.4983","7.6036","280.1231","0","0","9:19:52 PM",280.1231,2025-05-29 21:19:52,21:19:52,0,0
"118","0","59.0121","0.0029","-0.0687","64.9628","0","7.9078","65.0064","88.949","0.0342","0","0.1333","-0.9594","-0.2202","-2.6622","1.9752","9.5064","7.5967","279.8443","0","0","9:19:53 PM",279.8443,2025-05-29 21:19:53,21:19:53,0,0
"119","0","57.968","0.0029","-0.0106","64.8634","0","7.9076","65.0147","89.017","0.0339","0","0.1333","-0.9591","-0.2178","-2.6368","1.9827","9.5096","7.5977","279.5612","0","0","9:19:55 PM",279.5612,2025-05-29 21:19:55,21:19:55,0,0
"120","0","58.1685","0.0029","0.2415","65.475","0","7.7932","65.0012","88.8265","0.0341","0","0.1317","-0.9616","-0.2092","-2.6325","1.9593","9.5143","7.6123","279.2786","0","0","9:19:55 PM",279.2786,2025-05-29 21:19:55,21:19:55,0,0
"121","0.0001","58.5273","0.0029","-0.1546","65.4436","0","7.8138","65.0012","88.1691","0.0348","0","0.132","-0.9629","-0.2072","-2.646","1.9537","9.5066","7.6179","278.996","0","0","9:19:56 PM",278.996,2025-05-29 21:19:56,21:19:56,0,0
"122","0","58.5237","0.003","-0.075","64.7275","0","7.8869","65.0147","87.9396","0.0345","0","0.1332","-0.9615","-0.2158","-2.6855","1.9657","9.5056","7.5943","278.7135","0","0","9:19:58 PM",278.7135,2025-05-29 21:19:58,21:19:58,0,0
"123","-0.0001","57.7034","0.003","-0.0245","64.0918","0.0001","8.1382","65.0064","87.9508","0.0342","0","0.1372","-0.9594","-0.2166","-2.6328","1.9535","9.5131","7.6019","278.4341","0","0","9:19:58 PM",278.4341,2025-05-29 21:19:58,21:19:58,0,0
"124","0","58.9434","0.003","0.01","63.8242","0.0001","7.987","65.0178","88.0978","0.034","0","0.1349","-0.9613","-0.2154","-2.6487","1.9867","9.5082","7.6012","278.151","0","0","9:19:59 PM",278.151,2025-05-29 21:19:59,21:19:59,0,0
"125","0","58.6272","0.003","0.1023","63.9775","0.0001","8.0102","64.9991","88.7184","0.0343","0","0.1354","-0.962","-0.211","-2.6417","1.972","9.5078","7.6099","277.8684","0","0","9:20:00 PM",277.8684,2025-05-29 21:20:00,21:20:00,0,0
"126","0","58.1328","0.003","-0.0875","63.9574","0.0001","8.0144","65.0385","89.1273","0.0345","0","0.1351","-0.959","-0.2169","-2.6729","1.9726","9.5005","7.5977","277.5858","0","0","9:20:02 PM",277.5858,2025-05-29 21:20:02,21:20:02,0,0
"127","0","57.8418","0.003","-0.0245","63.4965","0.0001","8.1215","64.9026","89.7523","0.0341","0","0.1368","-0.9593","-0.2165","-2.6575","1.9537","9.5102","7.5911","277.3033","0","0","9:20:02 PM",277.3033,2025-05-29 21:20:02,21:20:02,0,0
"128","-0.0001","57.8554","0.003","-0.0116","63.1196","0.0001","8.1979","64.2645","90.0108","0.0338","0","0.1384","-0.9608","-0.2144","-2.6545","1.9442","9.5121","7.588","277.0239","0","0","9:20:03 PM",277.0239,2025-05-29 21:20:03,21:20:03,0,0
"129","-0.0001","57.4042","0.0029","-0.0059","62.8199","0.0001","8.1842","63.9553","90.1066","0.0336","0","0.138","-0.9592","-0.2152","-2.6559","1.9506","9.5085","7.59","276.7408","0","0","9:20:04 PM",276.7408,2025-05-29 21:20:04,21:20:04,0,0
"130","0","58.6925","0.0029","-0.0008","63.1938","0.0001","8.1162","64.003","90.7316","0.0336","0","0.1371","-0.9608","-0.216","-2.6771","1.974","9.4961","7.5868","276.4582","0","0","9:20:06 PM",276.4582,2025-05-29 21:20:06,21:20:06,0,0
"131","0","57.9179","0.0029","-0.0036","63.684","0.0001","8.0152","63.9822","91.1539","0.0337","0","0.1353","-0.9609","-0.2155","-2.6871","1.9711","9.4912","7.5822","276.1757","0","0","9:20:07 PM",276.1757,2025-05-29 21:20:07,21:20:07,0,0
"132","0","57.2837","0.0029","-0.0029","63.6448","0.0001","8.1811","63.9957","91.7388","0.0338","0","0.138","-0.96","-0.2154","-2.6707","1.9612","9.4969","7.5866","275.8931","0","0","9:20:07 PM",275.8931,2025-05-29 21:20:07,21:20:07,0,0
"133","0","57.9915","0.0029","-0.0022","63.4889","0.0001","8.3261","63.9874","92.0575","0.0337","0","0.1405","-0.9592","-0.215","-2.6706","1.9437","9.5063","7.5876","275.6137","0","0","9:20:09 PM",275.6137,2025-05-29 21:20:09,21:20:09,0,0
"134","0","58.3628","0.0029","-0.0022","63.4894","0.0001","8.3936","63.9988","91.9995","0.0337","0","0.1414","-0.9588","-0.218","-2.6667","1.9363","9.4947","7.5841","275.3306","0","0","9:20:09 PM",275.3306,2025-05-29 21:20:09,21:20:09,0,0
"135","0","58.4246","0.003","0.0188","64.0935","0.0001","8.3181","63.9988","92.0263","0.0338","0","0.1401","-0.9585","-0.2179","-2.6789","1.9186","9.5122","7.5864","275.0481","0","0","9:20:11 PM",275.0481,2025-05-29 21:20:11,21:20:11,0,0
"136","0","58.264","0.003","0.0189","65.0885","0.0001","8.2804","63.9885","92.0151","0.0342","0","0.1396","-0.959","-0.2171","-2.6518","1.9201","9.523","7.5854","274.7655","0","0","9:20:11 PM",274.7655,2025-05-29 21:20:11,21:20:11,0,0
"137","0","58.5518","0.0029","-0.0122","64.8419","0.0001","8.4723","63.9947","92.0173","0.0345","0","0.1428","-0.9587","-0.2164","-2.6644","1.9518","9.5083","7.5821","274.4829","0","0","9:20:12 PM",274.4829,2025-05-29 21:20:12,21:20:12,0,0
"138","0","58.9219","0.0029","-0.0058","64.4329","0.0001","8.441","63.9874","92.0229","0.0344","0","0.1423","-0.959","-0.2185","-2.645","1.9396","9.5156","7.5843","274.2035","0","0","9:20:14 PM",274.2035,2025-05-29 21:20:14,21:20:14,0,0
"139","0","58.8057","0.003","0.0863","64.4535","0.0001","8.3485","63.9999","92.004","0.0344","0","0.1409","-0.9596","-0.2156","-2.656","1.9451","9.5152","7.5958","273.9204","0","0","9:20:14 PM",273.9204,2025-05-29 21:20:14,21:20:14,0,0
"140","0.0001","58.7673","0.0029","0.3581","65.7424","0.0001","8.2255","63.9646","92.0463","0.0349","0","0.139","-0.9614","-0.2101","-2.6336","1.9191","9.5265","7.6103","273.6379","0","0","9:20:15 PM",273.6379,2025-05-29 21:20:15,21:20:15,0,0
"141","0.0001","60.337","0.0029","-0.2382","66.111","0.0001","8.0311","64.0341","91.9683","0.0354","0","0.1357","-0.9621","-0.2092","-2.6552","1.9581","9.499","7.6079","273.3553","0","0","9:20:17 PM",273.3553,2025-05-29 21:20:17,21:20:17,0,0
"142","0","58.5718","0.003","-0.0686","65.736","0","8.2355","64.6287","91.3923","0.035","0","0.139","-0.9605","-0.2157","-2.6367","1.975","9.5125","7.618","273.0728","0","0","9:20:17 PM",273.0728,2025-05-29 21:20:17,21:20:17,0,0
"143","0","57.5087","0.003","-0.0328","65.5667","0","8.1747","65.0364","90.9177","0.0346","0","0.1378","-0.9591","-0.2202","-2.6235","1.9881","9.5069","7.6135","272.7934","0","0","9:20:18 PM",272.7934,2025-05-29 21:20:18,21:20:18,0,0
"144","0","58.0051","0.003","0.0687","65.5794","0","8.1242","64.9773","90.3952","0.0344","0","0.137","-0.9599","-0.2118","-2.6702","1.9771","9.5099","7.6","272.5103","0","0","9:20:19 PM",272.5103,2025-05-29 21:20:19,21:20:19,0,0
"145","0.0001","60.3291","0.003","0.2001","66.5315","0","8.139","65.052","89.9105","0.035","0","0.1374","-0.9604","-0.2074","-2.6468","1.9226","9.5151","7.6101","272.2277","0","0","9:20:21 PM",272.2277,2025-05-29 21:20:21,21:20:21,0,0
"146","0.0001","68.4613","0.003","-0.1502","66.6646","0","8.1769","65.6248","89.3791","0.0356","0","0.1381","-0.9611","-0.2077","-2.6309","1.9367","9.5114","7.6081","271.9451","0","0","9:20:21 PM",271.9451,2025-05-29 21:20:21,21:20:21,0,0
"147","0","59.428","0.003","-0.0253","66.0267","0","8.2559","66.0274","88.9524","0.0354","0","0.1394","-0.961","-0.2124","-2.6308","1.9586","9.5154","7.5963","271.6626","0","0","9:20:22 PM",271.6626,2025-05-29 21:20:22,21:20:22,0,0
"148","0","58.5753","0.003","0.1852","66.4776","0","8.1853","65.9983","89.0014","0.0354","0","0.1383","-0.9617","-0.2096","-2.6522","1.9461","9.5151","7.6034","271.3832","0","0","9:20:23 PM",271.3832,2025-05-29 21:20:23,21:20:23,0,0
"149","0.0001","58.8748","0.003","-0.012","67.432","0","8.1273","65.99","88.949","0.0359","0","0.1375","-0.9624","-0.2039","-2.6393","1.9316","9.5239","7.6089","271.1001","0","0","9:20:25 PM",271.1001,2025-05-29 21:20:25,21:20:25,0,0
"150","0.0001","59.441","0.003","-0.0681","67.4188","0","8.1608","66.0346","88.3652","0.0361","0","0.1379","-0.9618","-0.2039","-2.6767","1.9497","9.4998","7.5811","270.8175","0","0","9:20:26 PM",270.8175,2025-05-29 21:20:26,21:20:26,0,0
"151","0.0001","59.2128","0.003","-0.1803","67.2004","0","8.156","66.5949","87.9652","0.036","0","0.1379","-0.9624","-0.2027","-2.6855","1.9491","9.4921","7.5775","270.535","0","0","9:20:26 PM",270.535,2025-05-29 21:20:26,21:20:26,0,0
"152","0","58.3281","0.0031","-0.0365","67.4517","0","8.2096","67.0214","88.5557","0.0354","0","0.1386","-0.9606","-0.2063","-2.7216","1.9504","9.4953","7.5723","270.2524","0","0","9:20:28 PM",270.2524,2025-05-29 21:20:28,21:20:28,0,0
"153","0","58.672","0.0032","0.0018","68.0202","0","8.1524","66.9892","89.0337","0.0352","0","0.1375","-0.9599","-0.2077","-2.7198","1.9719","9.4805","7.5801","269.973","0","0","9:20:28 PM",269.973,2025-05-29 21:20:28,21:20:28,0,0
"154","0","62.1256","0.0032","-0.092","68.8674","0","8.095","67.0276","89.5518","0.0352","0","0.1365","-0.96","-0.2141","-2.7079","1.9646","9.4908","7.5824","269.6899","0","0","9:20:30 PM",269.6899,2025-05-29 21:20:30,21:20:30,0,0
"155","0","58.5742","0.0032","-0.0084","68.2868","0","8.2553","67.5568","90.0264","0.035","0","0.1393","-0.9599","-0.2197","-2.7144","1.9597","9.5036","7.5711","269.4074","0","0","9:20:30 PM",269.4074,2025-05-29 21:20:30,21:20:30,0,0
"156","-0.0001","57.6564","0.0032","0.0269","67.6848","0.0001","8.2759","68.0175","90.5322","0.0346","0","0.1395","-0.959","-0.2173","-2.6887","1.9464","9.4972","7.573","269.1248","0","0","9:20:31 PM",269.1248,2025-05-29 21:20:31,21:20:31,0,0
"157","0","58.3866","0.0031","0.2902","67.1123","0.0001","8.1083","68.003","91.0169","0.0349","0","0.1367","-0.9596","-0.2113","-2.7094","1.9649","9.4989","7.5864","268.8422","0","0","9:20:33 PM",268.8422,2025-05-29 21:20:33,21:20:33,0,0
"158","0.0001","58.8589","0.0031","-0.1854","67.1968","0","8.0515","68.0061","90.9957","0.0357","0","0.1361","-0.9624","-0.2126","-2.6956","1.9778","9.4883","7.5913","268.5628","0","0","9:20:33 PM",268.5628,2025-05-29 21:20:33,21:20:33,0,0
"159","0","58.2018","0.0031","-0.0262","65.6894","0","8.1521","68.0082","91.0157","0.0353","0","0.1374","-0.9593","-0.217","-2.694","1.9784","9.4921","7.5753","268.2797","0","0","9:20:34 PM",268.2797,2025-05-29 21:20:34,21:20:34,0,0
"160","-0.0001","57.6279","0.0031","0.0063","64.8141","0.0001","8.0693","68.0102","91.5171","0.0349","0","0.1359","-0.9584","-0.2161","-2.6718","1.9691","9.5009","7.5779","267.9972","0","0","9:20:36 PM",267.9972,2025-05-29 21:20:36,21:20:36,0,0
"161","0","58.235","0.0031","0.3699","64.9173","0.0001","8.0568","67.5018","92.0006","0.0351","0","0.136","-0.9608","-0.2147","-2.6588","1.9938","9.5044","7.6012","267.7146","0","0","9:20:36 PM",267.7146,2025-05-29 21:20:36,21:20:36,0,0
"162","0.0001","59.7774","0.0031","-0.1395","65.2112","0.0001","7.7597","66.5016","92.0006","0.0359","0","0.1311","-0.9625","-0.208","-2.6297","1.9907","9.4987","7.6103","267.432","0","0","9:20:37 PM",267.432,2025-05-29 21:20:37,21:20:37,0,0
"163","0","58.2673","0.0032","-0.1372","64.6023","0","7.7525","66.0014","92.0006","0.0356","0","0.1307","-0.9596","-0.2199","-2.71","2.0214","9.4761","7.5823","267.1527","0","0","9:20:38 PM",267.1527,2025-05-29 21:20:38,21:20:38,0,0
"164","-0.0001","58.115","0.0032","-0.0217","64.4979","0","7.9753","66.0014","92.0006","0.035","0","0.1344","-0.9596","-0.2203","-2.6651","1.9914","9.5019","7.5777","266.8696","0","0","9:20:40 PM",266.8696,2025-05-29 21:20:40,21:20:40,0,0
"165","-0.0001","58.1961","0.0031","0.0313","63.9195","0","8.0202","65.5189","92.0029","0.0348","0","0.1353","-0.9594","-0.2158","-2.6572","1.9783","9.5033","7.5787","266.587","0","0","9:20:40 PM",266.587,2025-05-29 21:20:40,21:20:40,0,0
"166","0","59.1363","0.0031","0.3283","64.7436","0","7.9552","65.0074","92.0029","0.0351","0","0.1344","-0.9618","-0.2107","-2.6385","1.9854","9.5109","7.61","266.3044","0","0","9:20:41 PM",266.3044,2025-05-29 21:20:41,21:20:41,0,0
"167","0.0001","58.8801","0.0031","-0.2349","64.72","0","7.6329","64.996","92.0006","0.0359","0","0.129","-0.9621","-0.2084","-2.6664","1.9821","9.5004","7.5957","266.0219","0","0","9:20:42 PM",266.0219,2025-05-29 21:20:42,21:20:42,0,0
"168","0","58.1131","0.0031","-0.0658","64.1614","0","7.9081","64.9981","92.0006","0.0355","0","0.1333","-0.9596","-0.2193","-2.6978","2.0072","9.4858","7.5787","265.7425","0","0","9:20:44 PM",265.7425,2025-05-29 21:20:44,21:20:44,0,0
"169","-0.0001","57.6322","0.0032","-0.0193","64.1667","0","8.0294","65.0261","92.0006","0.0351","0","0.1353","-0.9591","-0.2178","-2.6712","1.977","9.5085","7.5755","265.4594","0","0","9:20:45 PM",265.4594,2025-05-29 21:20:45,21:20:45,0,0
"170","-0.0001","57.891","0.0032","-0.0077","64.0905","0.0001","8.0208","64.5674","92.0006","0.0347","0","0.1355","-0.9614","-0.2167","-2.6515","1.9629","9.4956","7.5787","265.1768","0","0","9:20:45 PM",265.1768,2025-05-29 21:20:45,21:20:45,0,0
"171","0","58.989","0.0032","0.3436","64.0519","0.0001","7.914","64.0144","91.9951","0.0347","0","0.1336","-0.9611","-0.2117","-2.6824","1.9645","9.5096","7.5809","264.8943","0","0","9:20:46 PM",264.8943,2025-05-29 21:20:46,21:20:46,0,0
"172","0.0001","59.0144","0.0031","0.0475","65.0902","0.0001","7.7188","63.9885","91.9973","0.0357","0.0001","0.1306","-0.9633","-0.2034","-2.617","1.9387","9.5111","7.6091","264.6122","0","0","9:20:48 PM",264.6122,2025-05-29 21:20:48,21:20:48,0,0
"173","0","59.9596","0.0032","-0.2651","64.8288","0.0001","7.7129","63.9988","91.9939","0.0357","0","0.1302","-0.9617","-0.2156","-2.6678","2.0255","9.4788","7.5878","264.3323","0","0","9:20:49 PM",264.3323,2025-05-29 21:20:49,21:20:49,0,0
"174","0","58.6303","0.0033","-0.0506","64.1244","0","7.9248","63.9947","92.0073","0.0352","0","0.1335","-0.9594","-0.2191","-2.6894","2.0024","9.4947","7.5774","264.0492","0","0","9:20:49 PM",264.0492,2025-05-29 21:20:49,21:20:49,0,0
"175","-0.0001","58.6717","0.0033","-0.0231","63.6338","0","7.9795","63.9957","91.9717","0.0348","0","0.1345","-0.9593","-0.2187","-2.6819","1.977","9.5043","7.5718","263.7666","0","0","9:20:50 PM",263.7666,2025-05-29 21:20:50,21:20:50,0,0
"176","-0.0001","57.9069","0.0033","-0.012","63.4805","0.0001","8.0414","63.9926","92.3962","0.0346","0","0.1356","-0.9604","-0.2178","-2.6713","1.9621","9.495","7.5767","263.4841","0","0","9:20:52 PM",263.4841,2025-05-29 21:20:52,21:20:52,0,0
"177","-0.0001","58.5053","0.0033","0.0261","63.205","0.0001","8.086","63.9988","92.9666","0.0345","0","0.1364","-0.9605","-0.2171","-2.6899","1.9745","9.5006","7.5775","263.202","0","0","9:20:52 PM",263.202,2025-05-29 21:20:52,21:20:52,0,0
"178","0","61.6349","0.0033","0.0811","63.7446","0.0001","7.8638","64.0051","93.0156","0.035","0","0.1326","-0.9608","-0.2055","-2.6956","1.9597","9.4844","7.5742","262.9221","0","0","9:20:53 PM",262.9221,2025-05-29 21:20:53,21:20:53,0,0
"179","0","58.6714","0.0034","-0.0665","63.2399","0.0001","7.8889","63.9999","93.0034","0.0354","0","0.1331","-0.9615","-0.2149","-2.7227","1.9604","9.4867","7.5708","262.639","0","0","9:20:55 PM",262.639,2025-05-29 21:20:55,21:20:55,0,0
"180","0","58.5524","0.0034","-0.0241","63.1521","0.0001","8.0796","64.0102","93.0089","0.0351","0","0.1362","-0.9599","-0.216","-2.6915","1.9688","9.4978","7.5731","262.3565","0","0","9:20:55 PM",262.3565,2025-05-29 21:20:55,21:20:55,0,0
"181","0","59.0617","0.0034","-0.015","63.1587","0.0001","8.0816","63.9947","92.9933","0.0348","0","0.1364","-0.9603","-0.2187","-2.6793","1.9704","9.5006","7.5789","262.0739","0","0","9:20:56 PM",262.0739,2025-05-29 21:20:56,21:20:56,0,0
"182","0","57.8227","0.0033","-0.0105","63.1733","0.0001","8.1867","64.0331","93.0034","0.0347","0","0.138","-0.959","-0.2171","-2.6785","1.9615","9.5008","7.5731","261.7919","0","0","9:20:57 PM",261.7919,2025-05-29 21:20:57,21:20:57,0,0
"183","0","58.0561","0.0034","-0.0074","63.2029","0.0001","8.2355","63.6616","92.9844","0.0347","0","0.1387","-0.9586","-0.2184","-2.6804","1.953","9.5089","7.5754","261.512","0","0","9:20:59 PM",261.512,2025-05-29 21:20:59,21:20:59,0,0
"184","0","57.7271","0.0034","0.2252","63.1666","0.0001","8.1457","63.0525","93.0034","0.0347","0","0.1375","-0.9604","-0.2108","-2.7153","1.9368","9.5032","7.5779","261.2289","0","0","9:20:59 PM",261.2289,2025-05-29 21:20:59,21:20:59,0,0
"185","0.0001","58.1509","0.0034","-0.0556","64.1341","0.0001","7.8699","62.9706","92.961","0.0356","0","0.133","-0.9621","-0.2002","-2.6973","1.9214","9.5018","7.5585","260.9463","0","0","9:21:00 PM",260.9463,2025-05-29 21:21:00,21:21:00,0,0
"186","0","58.1116","0.0034","-0.0777","64.3776","0.0001","8.0888","62.9872","93.3287","0.0355","0","0.1367","-0.9623","-0.2109","-2.7062","1.9531","9.5055","7.5597","260.6637","0","0","9:21:01 PM",260.6637,2025-05-29 21:21:01,21:21:01,0,0
"187","0","57.8577","0.0033","-0.0361","63.8184","0.0001","8.0328","62.9913","93.9348","0.0351","0","0.1357","-0.9612","-0.2149","-2.6757","1.9651","9.4993","7.5765","260.3817","0","0","9:21:03 PM",260.3817,2025-05-29 21:21:03,21:21:03,0,0
"188","0","58.9156","0.0033","-0.0252","63.8182","0","8.1304","62.9488","94.0206","0.0349","0","0.1372","-0.96","-0.2155","-2.6684","1.9647","9.4966","7.5755","260.1018","0","0","9:21:04 PM",260.1018,2025-05-29 21:21:04,21:21:04,0,0
"189","0","58.0363","0.0034","0.0502","64.2177","0.0001","8.1159","63.2839","93.9972","0.0348","0","0.1369","-0.9607","-0.2133","-2.6895","1.9478","9.4994","7.572","259.8187","0","0","9:21:04 PM",259.8187,2025-05-29 21:21:04,21:21:04,0,0
"190","0.0001","58.2242","0.0034","0.2543","64.9238","0","7.9031","63.9158","94.0128","0.0354","0","0.1335","-0.9623","-0.2004","-2.6772","1.9274","9.5021","7.5878","259.5361","0","0","9:21:05 PM",259.5361,2025-05-29 21:21:05,21:21:05,0,0
"191","0.0001","58.8306","0.0033","-0.212","65.0261","0","7.83","64.0289","94.0038","0.0361","0","0.1325","-0.9637","-0.2015","-2.7031","1.9466","9.4988","7.5664","259.2536","0","0","9:21:07 PM",259.2536,2025-05-29 21:21:07,21:21:07,0,0
"192","0","58.4662","0.0034","-0.0568","64.6601","0","8.0556","63.9978","94.0116","0.0356","0","0.1359","-0.9602","-0.2147","-2.6936","1.9724","9.4874","7.571","258.9715","0","0","9:21:08 PM",258.9715,2025-05-29 21:21:08,21:21:08,0,0
"193","0","57.7635","0.0033","-0.0305","64.2085","0","8.2389","64.0123","94.0016","0.0352","0","0.1389","-0.9599","-0.2136","-2.6715","1.955","9.4973","7.5701","258.6916","0","0","9:21:08 PM",258.6916,2025-05-29 21:21:08,21:21:08,0,0
"194","0","57.9105","0.0033","0.1735","64.4762","0","8.0707","64.004","94.0016","0.0351","0","0.1365","-0.9628","-0.2068","-2.7029","1.9216","9.5049","7.5651","258.4085","0","0","9:21:09 PM",258.4085,2025-05-29 21:21:09,21:21:09,0,0
"195","0.0001","61.8686","0.0034","-0.1096","64.8303","0","7.9271","64.0113","94.0016","0.0359","0","0.1339","-0.9616","-0.2022","-2.7088","1.9343","9.4935","7.5656","258.1259","0","0","9:21:11 PM",258.1259,2025-05-29 21:21:11,21:21:11,0,0
"196","0","59.9182","0.0034","-0.0528","64.8568","0","8.0816","63.9988","94.0016","0.0358","0","0.1363","-0.9598","-0.2107","-2.7019","1.9444","9.4935","7.5651","257.8434","0","0","9:21:11 PM",257.8434,2025-05-29 21:21:11,21:21:11,0,0
"197","0","58.8185","0.0035","-0.0251","64.416","0","8.2391","63.9988","94.0016","0.0354","0","0.1391","-0.9607","-0.2137","-2.6683","1.953","9.504","7.5708","257.5613","0","0","9:21:12 PM",257.5613,2025-05-29 21:21:12,21:21:12,0,0
"198","0","58.6247","0.0034","0.1104","65.041","0","8.1017","63.9853","94.0128","0.0354","0","0.1367","-0.961","-0.2062","-2.7098","1.9502","9.4946","7.5711","257.2814","0","0","9:21:14 PM",257.2814,2025-05-29 21:21:14,21:21:14,0,0
"199","0","59.467","0.0035","-0.0938","65.4225","0.0001","8.0972","63.9936","94.0027","0.036","0","0.1367","-0.9609","-0.2104","-2.7217","1.9611","9.4874","7.5595","256.9983","0","0","9:21:14 PM",256.9983,2025-05-29 21:21:14,21:21:14,0,0
"200","0","58.1561","0.0035","-0.0293","64.8541","0.0001","8.1934","63.9812","94.0172","0.0357","0","0.1383","-0.9604","-0.2155","-2.6883","1.9625","9.5099","7.5711","256.7158","0","0","9:21:15 PM",256.7158,2025-05-29 21:21:15,21:21:15,0,0
"201","0","58.6761","0.0035","0.036","64.8592","0.0001","8.1613","64.003","93.996","0.0354","0","0.1376","-0.9592","-0.2141","-2.6986","1.9505","9.5028","7.573","256.4332","0","0","9:21:16 PM",256.4332,2025-05-29 21:21:16,21:21:16,0,0
"202","0","58.1321","0.0035","0.0461","65.0813","0.0001","8.04","63.9542","94.044","0.0358","0","0.1359","-0.9619","-0.2035","-2.7056","1.9258","9.4946","7.5777","256.1512","0","0","9:21:18 PM",256.1512,2025-05-29 21:21:18,21:21:18,0,0
"203","0","57.9415","0.0035","-0.0637","64.8069","0.0001","8.1005","64.2043","93.7944","0.036","0","0.137","-0.9623","-0.2094","-2.703","1.9584","9.4968","7.5678","255.8712","0","0","9:21:18 PM",255.8712,2025-05-29 21:21:18,21:21:18,0,0
"204","0","58.1291","0.0035","-0.0317","64.517","0.0001","8.2082","64.8632","93.1504","0.0357","0","0.1385","-0.9603","-0.2143","-2.6773","1.9571","9.5071","7.5718","255.5882","0","0","9:21:19 PM",255.5882,2025-05-29 21:21:19,21:21:19,0,0
"205","0","58.2658","0.0034","-0.0157","64.1203","0.0001","8.2693","65.0468","92.9599","0.0355","0","0.1397","-0.9613","-0.215","-2.6813","1.9543","9.5077","7.5674","255.3056","0","0","9:21:20 PM",255.3056,2025-05-29 21:21:20,21:21:20,0,0
"206","0","58.7301","0.0034","-0.0087","64.4338","0.0001","8.1758","65.0167","93.0034","0.0355","0","0.1379","-0.9599","-0.216","-2.69","1.9646","9.4945","7.5627","255.023","0","0","9:21:22 PM",255.023,2025-05-29 21:21:22,21:21:22,0,0
"207","0","58.5874","0.0035","0.0277","64.2189","0.0001","8.2004","65.0012","92.9822","0.0355","0","0.1387","-0.9625","-0.2114","-2.7064","1.9268","9.501","7.572","254.741","0","0","9:21:23 PM",254.741,2025-05-29 21:21:23,21:21:23,0,0
"208","0","58.6456","0.0035","-0.0235","64.795","0.0001","8.2648","65.0437","93.0089","0.036","0","0.1394","-0.96","-0.2119","-2.7259","1.9451","9.4958","7.5752","254.4611","0","0","9:21:23 PM",254.4611,2025-05-29 21:21:23,21:21:23,0,0
"209","0","57.9919","0.0035","-0.0125","64.8647","0.0001","8.2065","64.5529","93.0268","0.0359","0","0.1384","-0.9594","-0.2145","-2.6987","1.9579","9.4977","7.5686","254.178","0","0","9:21:24 PM",254.178,2025-05-29 21:21:24,21:21:24,0,0
"210","0","58.2132","0.0036","-0.006","64.4638","0.0002","8.3381","63.9137","92.9956","0.0357","0","0.1405","-0.9586","-0.2149","-2.6975","1.9551","9.5074","7.57","253.8954","0","0","9:21:26 PM",253.8954,2025-05-29 21:21:26,21:21:26,0,0
"211","0","58.5525","0.0036","0.0095","64.4089","0.0001","8.2921","64.1503","93.0379","0.0356","0","0.1399","-0.9604","-0.214","-2.7022","1.9442","9.5032","7.5764","253.6128","0","0","9:21:27 PM",253.6128,2025-05-29 21:21:27,21:21:27,0,0
"212","0","58.1147","0.0036","0.1342","65.321","0.0001","8.2489","64.777","92.8607","0.036","0","0.1393","-0.9605","-0.2102","-2.693","1.9218","9.5041","7.5811","253.3308","0","0","9:21:27 PM",253.3308,2025-05-29 21:21:27,21:21:27,0,0
"213","0","58.2784","0.0036","-0.0808","65.4192","0.0001","8.1452","65.0396","92.209","0.0366","0","0.1378","-0.9631","-0.2088","-2.6968","1.9542","9.4906","7.578","253.0509","0","0","9:21:29 PM",253.0509,2025-05-29 21:21:29,21:21:29,0,0
"214","0","57.2307","0.0036","-0.0245","64.854","0.0001","8.308","64.97","91.9739","0.0363","0","0.1401","-0.9594","-0.2134","-2.6657","1.9551","9.5114","7.5732","252.7678","0","0","9:21:30 PM",252.7678,2025-05-29 21:21:30,21:21:30,0,0
"215","0","58.2168","0.0036","-0.0112","64.6391","0.0001","8.2938","65.0147","92.0029","0.036","0","0.1399","-0.9593","-0.2166","-2.67","1.9575","9.4974","7.5716","252.4852","0","0","9:21:30 PM",252.4852,2025-05-29 21:21:30,21:21:30,0,0
"216","0","58.0228","0.0037","0.1961","65.1343","0.0001","8.1351","64.9898","92.0318","0.0362","0","0.1374","-0.9611","-0.2115","-2.6888","1.9378","9.5134","7.5807","252.2027","0","0","9:21:31 PM",252.2027,2025-05-29 21:21:31,21:21:31,0,0
"217","0.0001","58.5328","0.0036","0.0103","66.0007","0.0001","8.0484","65.0167","91.8725","0.0371","0","0.1361","-0.9625","-0.2043","-2.6564","1.9219","9.5088","7.5868","251.9206","0","0","9:21:33 PM",251.9206,2025-05-29 21:21:33,21:21:33,0,0
"218","0","58.801","0.0037","-0.1253","65.9752","0","8.0693","64.9628","91.2363","0.037","0","0.1362","-0.961","-0.2139","-2.6955","1.9686","9.4963","7.5742","251.6407","0","0","9:21:33 PM",251.6407,2025-05-29 21:21:33,21:21:33,0,0
"219","0","57.6706","0.0037","-0.0286","65.9343","0.0001","8.0835","65.1267","90.9667","0.0364","0","0.1365","-0.9615","-0.215","-2.6537","1.9586","9.51","7.5765","251.3576","0","0","9:21:34 PM",251.3576,2025-05-29 21:21:34,21:21:34,0,0
"220","0","58.1479","0.0037","0.1282","66.2751","0.0001","8.1139","65.7649","91.0425","0.0364","0","0.1369","-0.9607","-0.2106","-2.6934","1.932","9.5","7.5833","251.0751","0","0","9:21:35 PM",251.0751,2025-05-29 21:21:35,21:21:35,0,0
"221","0.0001","60.6106","0.0036","-0.0148","66.7931","0.0001","8.1485","66.045","90.8943","0.0373","0","0.1375","-0.9602","-0.2075","-2.6686","1.9293","9.507","7.5831","250.7925","0","0","9:21:37 PM",250.7925,2025-05-29 21:21:37,21:21:37,0,0
"222","0","60.1576","0.0037","-0.1029","66.2883","0","8.1703","65.9973","90.2581","0.0372","0","0.1378","-0.9598","-0.2104","-2.6589","1.9816","9.5161","7.5742","250.5105","0","0","9:21:37 PM",250.5105,2025-05-29 21:21:37,21:21:37,0,0
"223","-0.0001","57.9738","0.0036","-0.0224","66.2836","0","8.2419","66.018","89.964","0.0367","0","0.1389","-0.959","-0.2133","-2.6439","1.9682","9.5117","7.5732","250.2305","0","0","9:21:38 PM",250.2305,2025-05-29 21:21:38,21:21:38,0,0
"224","0","58.226","0.0036","0.1274","66.9647","0.0001","8.1156","66.0056","89.8938","0.0365","0","0.1371","-0.9621","-0.2051","-2.6841","1.9467","9.5047","7.5787","249.9474","0","0","9:21:39 PM",249.9474,2025-05-29 21:21:39,21:21:39,0,0
"225","0.0001","58.0157","0.0035","-0.078","67.205","0","7.9948","66.0139","89.2264","0.0374","0","0.1353","-0.9631","-0.2037","-2.68","1.939","9.5043","7.5834","249.6649","0","0","9:21:41 PM",249.6649,2025-05-29 21:21:41,21:21:41,0,0
"226","0","58.659","0.0035","-0.0465","66.8327","0","8.1471","66.0014","88.9501","0.0372","0","0.1375","-0.9604","-0.2124","-2.6952","1.9633","9.4944","7.5711","249.3823","0","0","9:21:42 PM",249.3823,2025-05-29 21:21:42,21:21:42,0,0
"227","0","58.0006","0.0035","-0.016","66.2178","0","8.2004","66.0014","88.9479","0.0366","0","0.1384","-0.9606","-0.2136","-2.6713","1.9589","9.5028","7.5686","249.1008","0","0","9:21:42 PM",249.1008,2025-05-29 21:21:42,21:21:42,0,0
"228","0","58.346","0.0035","0.0319","65.626","0","8.1418","66.0014","89.0694","0.0364","0","0.1375","-0.9607","-0.2112","-2.6831","1.9452","9.5034","7.5708","248.8204","0","0","9:21:43 PM",248.8204,2025-05-29 21:21:43,21:21:43,0,0
"229","0","58.5873","0.0035","0.1592","66.5505","0","8.0964","66.0014","89.6654","0.0368","0","0.1371","-0.9637","-0.2037","-2.6871","1.9231","9.5046","7.5786","248.5373","0","0","9:21:45 PM",248.5373,2025-05-29 21:21:45,21:21:45,0,0
"230","0","58.5796","0.0036","-0.1331","66.1768","0","8.1393","66.0108","90.091","0.0373","0","0.1374","-0.9607","-0.2072","-2.6731","1.9648","9.4995","7.5777","248.2547","0","0","9:21:46 PM",248.2547,2025-05-29 21:21:46,21:21:46,0,0
"231","0","59.6248","0.0036","-0.0281","65.4747","0","8.334","65.9952","90.6548","0.0369","0","0.1406","-0.9597","-0.2148","-2.63","1.9767","9.5186","7.5743","247.9721","0","0","9:21:46 PM",247.9721,2025-05-29 21:21:46,21:21:46,0,0
"232","0","58.4808","0.0036","-0.0139","65.1229","0","8.3437","66.0087","91.0536","0.0366","0","0.1405","-0.9582","-0.2138","-2.634","1.9765","9.5154","7.5678","247.6906","0","0","9:21:47 PM",247.6906,2025-05-29 21:21:47,21:21:47,0,0
"233","0","58.8882","0.0036","-0.0087","64.9356","0","8.3063","65.9879","90.9756","0.0364","0","0.1402","-0.9599","-0.2133","-2.6476","1.9688","9.513","7.5686","247.4102","0","0","9:21:49 PM",247.4102,2025-05-29 21:21:49,21:21:49,0,0
"234","0","59.3576","0.0036","0.003","65.2219","0","8.1518","66.0149","91.0648","0.0364","0","0.1375","-0.9598","-0.2108","-2.6742","1.9469","9.5051","7.5674","247.1271","0","0","9:21:49 PM",247.1271,2025-05-29 21:21:49,21:21:49,0,0
"235","0","57.8603","0.0037","0.056","65.7591","0","8.0693","65.9329","91.6408","0.0367","0","0.1361","-0.9604","-0.2074","-2.6842","1.9353","9.4996","7.5754","246.8445","0","0","9:21:50 PM",246.8445,2025-05-29 21:21:50,21:21:50,0,0
"236","0","57.3975","0.0037","-0.0324","66.1658","0","8.2316","65.411","92.0419","0.0371","0","0.1389","-0.9598","-0.2125","-2.6998","1.9495","9.4914","7.563","246.562","0","0","9:21:52 PM",246.562,2025-05-29 21:21:52,21:21:52,0,0
"237","0","58.2215","0.0037","-0.0122","66.077","0","8.3111","65.604","91.9951","0.0369","0","0.1404","-0.9609","-0.2162","-2.6678","1.9519","9.5022","7.5654","246.2805","0","0","9:21:52 PM",246.2805,2025-05-29 21:21:52,21:21:52,0,0
"238","0","57.9486","0.0037","-0.0044","65.9361","0","8.3535","66.0388","92.0107","0.0368","0","0.141","-0.9604","-0.2178","-2.682","1.9583","9.4973","7.5686","246","0","0","9:21:53 PM",246,2025-05-29 21:21:53,21:21:53,0,0
"239","0","58.6313","0.0037","0.034","66.2793","0","8.3582","65.9817","92.0073","0.0368","0","0.1409","-0.9596","-0.2148","-2.6917","1.9338","9.5005","7.5642","245.7169","0","0","9:21:54 PM",245.7169,2025-05-29 21:21:54,21:21:54,0,0
"240","0","58.5516","0.0037","-0.021","66.6275","0","8.3981","66.0077","92.0095","0.0374","0","0.1419","-0.9607","-0.2151","-2.6952","1.9329","9.5084","7.5618","245.4343","0","0","9:21:56 PM",245.4343,2025-05-29 21:21:56,21:21:56,0,0
"241","0","58.0497","0.0036","-0.011","65.9096","0","8.3872","65.9962","92.0073","0.0373","0","0.1416","-0.9604","-0.2156","-2.681","1.9606","9.4975","7.563","245.1518","0","0","9:21:56 PM",245.1518,2025-05-29 21:21:56,21:21:56,0,0
"242","0","58.0928","0.0036","-0.0046","65.553","0","8.4095","66.0077","91.9995","0.037","0","0.1417","-0.9585","-0.2164","-2.684","1.958","9.5088","7.5642","244.8703","0","0","9:21:57 PM",244.8703,2025-05-29 21:21:57,21:21:57,0,0
"243","0","57.7189","0.0035","0.0381","65.7502","0","8.32","66.0014","92.0118","0.0369","0","0.1405","-0.9602","-0.2125","-2.6736","1.9443","9.51","7.5652","244.5898","0","0","9:21:58 PM",244.5898,2025-05-29 21:21:58,21:21:58,0,0
"244","0.0001","59.2121","0.0036","0.1226","66.4059","0","8.1884","66.0014","91.9828","0.0374","0","0.1384","-0.9618","-0.2105","-2.6473","1.9121","9.52","7.5821","244.3067","0","0","9:22:00 PM",244.3067,2025-05-29 21:22:00,21:22:00,0,0
"245","0","59.1081","0.0036","-0.1026","66.9176","0","8.2963","66.0014","91.4358","0.0379","0","0.1399","-0.9591","-0.2123","-2.6478","1.9544","9.5135","7.573","244.0242","0","0","9:22:01 PM",244.0242,2025-05-29 21:22:01,21:22:01,0,0
"246","0","58.1535","0.0036","-0.0214","66.3621","0","8.303","65.9973","90.9801","0.0374","0","0.1399","-0.9589","-0.214","-2.655","1.9654","9.5081","7.5644","243.7416","0","0","9:22:01 PM",243.7416,2025-05-29 21:22:01,21:22:01,0,0
"247","0","58.4421","0.0036","-0.0056","66.1516","0","8.3005","65.9994","91.0169","0.0369","0","0.1401","-0.9599","-0.2134","-2.6729","1.9543","9.5018","7.5674","243.4601","0","0","9:22:02 PM",243.4601,2025-05-29 21:22:02,21:22:02,0,0
"248","0","58.6668","0.0037","0.0724","66.6473","0","8.2617","65.9994","90.9957","0.0371","0","0.1395","-0.9609","-0.2123","-2.6858","1.9208","9.5086","7.5785","243.1797","0","0","9:22:04 PM",243.1797,2025-05-29 21:22:04,21:22:04,0,0
"249","0.0001","60.1389","0.0036","-0.0446","67.3451","0","8.2313","66.0004","90.4687","0.0378","0","0.139","-0.9603","-0.2074","-2.6796","1.9199","9.5126","7.5708","242.8966","0","0","9:22:05 PM",242.8966,2025-05-29 21:22:05,21:22:05,0,0
"250","0","58.6735","0.0036","-0.0344","67.0696","0","8.0208","65.9962","89.9896","0.0376","0","0.1354","-0.9613","-0.2131","-2.6863","1.9541","9.5011","7.5484","242.614","0","0","9:22:05 PM",242.614,2025-05-29 21:22:05,21:22:05,0,0
"251","0","59.207","0.0036","0.1353","67.2594","0","8.2163","66.0108","90.0052","0.0372","0","0.1388","-0.9613","-0.2112","-2.6743","1.9511","9.5053","7.5807","242.3314","0","0","9:22:06 PM",242.3314,2025-05-29 21:22:06,21:22:06,0,0
"252","0.0001","59.8236","0.0036","0.0692","68.1085","-0.0001","8.1287","66.5358","89.9896","0.0379","0","0.1375","-0.9629","-0.2067","-2.6657","1.9223","9.5102","7.5866","242.0499","0","0","9:22:08 PM",242.0499,2025-05-29 21:22:08,21:22:08,0,0
"253","0","59.5312","0.0036","-0.1413","67.5128","-0.0001","8.17","67.0183","89.4894","0.0378","0","0.1377","-0.9586","-0.2125","-2.6514","1.9819","9.5129","7.5811","241.7695","0","0","9:22:08 PM",241.7695,2025-05-29 21:22:08,21:22:08,0,0
"254","-0.0001","58.3433","0.0036","-0.0218","66.7188","-0.0001","8.0807","67.0017","89.0014","0.0371","0","0.1363","-0.96","-0.2193","-2.6107","2.0335","9.5038","7.6091","241.4864","0","0","9:22:10 PM",241.4864,2025-05-29 21:22:10,21:22:10,0,0
"255","-0.0001","58.7727","0.0035","-0.004","66.6628","-0.0001","8.1117","67.0017","89.0014","0.0366","0","0.1369","-0.9603","-0.219","-2.6403","2.0267","9.4957","7.6092","241.2038","0","0","9:22:11 PM",241.2038,2025-05-29 21:22:11,21:22:11,0,0
"256","0","59.5978","0.0036","0.1373","67.2181","0","7.9536","67.0017","88.5011","0.0368","0","0.1344","-0.9617","-0.2076","-2.6695","1.9405","9.5041","7.5822","240.9213","0","0","9:22:11 PM",240.9213,2025-05-29 21:22:11,21:22:11,0,0
"257","0.0001","60.9616","0.0036","-0.0912","67.7791","-0.0001","8.004","67.0038","88.4755","0.0376","0","0.1352","-0.9612","-0.2118","-2.6732","1.9431","9.5071","7.57","240.6397","0","0","9:22:12 PM",240.6397,2025-05-29 21:22:12,21:22:12,0,0
"258","0","58.4495","0.0036","-0.0318","67.4149","-0.0001","8.1792","67.0038","88.9858","0.0373","0","0.1379","-0.9595","-0.2176","-2.6309","2.0098","9.5099","7.6099","240.3593","0","0","9:22:13 PM",240.3593,2025-05-29 21:22:13,21:22:13,0,0
"259","0","58.2895","0.0035","-0.01","67.1786","0","8.0958","67.0017","89.0036","0.0368","0","0.1366","-0.9606","-0.2171","-2.6417","1.9954","9.5098","7.5955","240.0762","0","0","9:22:15 PM",240.0762,2025-05-29 21:22:15,21:22:15,0,0
"260","0","58.1501","0.0035","0.0155","67.2777","0","8.228","67.0017","88.9958","0.0366","0","0.1388","-0.96","-0.214","-2.6803","1.9782","9.5042","7.5696","239.7936","0","0","9:22:15 PM",239.7936,2025-05-29 21:22:15,21:22:15,0,0
"261","0","58.4206","0.0035","0.007","67.4037","0","8.2416","67.0017","89.0014","0.037","0","0.139","-0.9596","-0.2128","-2.6723","1.9427","9.5085","7.5767","239.5111","0","0","9:22:16 PM",239.5111,2025-05-29 21:22:16,21:22:16,0,0
"262","0","58.4715","0.0035","-0.0188","66.3863","0","8.2495","67.0058","88.9936","0.0372","0","0.1392","-0.9598","-0.2154","-2.6715","1.9835","9.4989","7.5706","239.2296","0","0","9:22:17 PM",239.2296,2025-05-29 21:22:17,21:22:17,0,0
"263","0","58.3239","0.0035","-0.006","65.6227","0.0001","8.2313","67.0027","89.007","0.0368","0","0.1389","-0.9605","-0.2169","-2.6667","1.9686","9.498","7.571","238.9491","0","0","9:22:19 PM",238.9491,2025-05-29 21:22:19,21:22:19,0,0
"264","0","58.3909","0.0036","-0.0009","65.6568","0.0001","8.2648","67.0069","88.9758","0.0366","0","0.1395","-0.9604","-0.2164","-2.6631","1.9744","9.4988","7.5765","238.666","0","0","9:22:20 PM",238.666,2025-05-29 21:22:20,21:22:20,0,0
"265","0","58.6556","0.0036","0.0316","66.0385","0.0001","8.2294","66.9986","89.4292","0.0366","0","0.1389","-0.9599","-0.2141","-2.6945","1.956","9.4974","7.5743","238.3835","0","0","9:22:20 PM",238.3835,2025-05-29 21:22:20,21:22:20,0,0
"266","0","58.195","0.0036","0.0205","66.1303","0","8.2495","67.0214","89.974","0.0371","0","0.1392","-0.9601","-0.215","-2.6834","1.9608","9.5038","7.5765","238.1009","0","0","9:22:21 PM",238.1009,2025-05-29 21:22:21,21:22:21,0,0
"267","0","58.5228","0.0036","-0.0202","65.4772","0","8.2601","66.5918","90.013","0.0374","0","0.1393","-0.9597","-0.2155","-2.6683","1.9777","9.4971","7.5721","237.8194","0","0","9:22:23 PM",237.8194,2025-05-29 21:22:23,21:22:23,0,0
"268","0","58.2467","0.0036","-0.0079","64.7638","0","8.3387","66.0409","89.9774","0.037","0","0.1407","-0.9595","-0.2189","-2.6536","1.989","9.4983","7.5765","237.539","0","0","9:22:24 PM",237.539,2025-05-29 21:22:24,21:22:24,0,0
"269","0","58.0898","0.0036","0.0028","65.1515","0","8.2525","65.9817","90.4052","0.0369","0","0.1393","-0.9604","-0.2163","-2.6779","1.9874","9.5057","7.5774","237.2559","0","0","9:22:24 PM",237.2559,2025-05-29 21:22:24,21:22:24,0,0
"270","0","59.0034","0.0036","0.1122","65.8004","0","8.2294","66.0077","90.9779","0.0372","0","0.1389","-0.9606","-0.213","-2.679","1.9524","9.5115","7.5801","236.9733","0","0","9:22:25 PM",236.9733,2025-05-29 21:22:25,21:22:25,0,0
"271","0.0001","60.57","0.0036","-0.0608","65.7223","0","8.2316","65.9744","91.0091","0.038","0","0.1389","-0.9609","-0.2115","-2.6805","1.9631","9.505","7.5775","236.6907","0","0","9:22:27 PM",236.6907,2025-05-29 21:22:27,21:22:27,0,0
"272","0","58.7435","0.0036","-0.0283","65.5577","-0.0001","8.2667","66.0357","91.0403","0.0377","0","0.1391","-0.9574","-0.2155","-2.6569","1.992","9.5049","7.572","236.4092","0","0","9:22:27 PM",236.4092,2025-05-29 21:22:27,21:22:27,0,0
"273","0","58.2194","0.0036","-0.0106","65.2511","-0.0001","8.2154","65.5968","90.6492","0.0372","0","0.1385","-0.9593","-0.2174","-2.6429","2.0083","9.5032","7.5777","236.1288","0","0","9:22:29 PM",236.1288,2025-05-29 21:22:29,21:22:29,0,0
"274","0","58.7005","0.0037","0.0283","65.8923","-0.0001","8.2037","65.411","90.0609","0.037","0","0.1386","-0.9614","-0.2134","-2.6763","1.9626","9.4981","7.571","235.8457","0","0","9:22:30 PM",235.8457,2025-05-29 21:22:30,21:22:30,0,0
"275","0.0001","61.1975","0.0037","0.0647","66.6225","-0.0001","8.1435","65.9329","89.9919","0.0375","0","0.1376","-0.9618","-0.2087","-2.6608","1.9222","9.5092","7.5809","235.5631","0","0","9:22:30 PM",235.5631,2025-05-29 21:22:30,21:22:30,0,0
"276","0","59.2293","0.0037","-0.0884","66.5754","-0.0001","8.2712","66.0149","90.0431","0.038","0","0.1396","-0.9596","-0.2122","-2.6629","1.9885","9.5039","7.571","235.2805","0","0","9:22:31 PM",235.2805,2025-05-29 21:22:31,21:22:31,0,0
"277","0","59.0639","0.0037","-0.0151","66.1872","-0.0001","8.2456","65.9879","89.6732","0.0375","0","0.1389","-0.9587","-0.2164","-2.6438","1.9989","9.4942","7.5721","234.9996","0","0","9:22:32 PM",234.9996,2025-05-29 21:22:32,21:22:32,0,0
"278","0","59.1821","0.0037","-0.0012","66.1157","-0.0001","8.2539","65.9994","89.056","0.0371","0","0.1391","-0.959","-0.2127","-2.6687","1.9788","9.5121","7.5617","234.7186","0","0","9:22:34 PM",234.7186,2025-05-29 21:22:34,21:22:34,0,0
"279","0","59.4622","0.0038","0.0163","66.9116","-0.0001","8.2433","65.9921","89.0047","0.0371","0","0.1391","-0.9604","-0.2103","-2.6852","1.934","9.5066","7.5721","234.4355","0","0","9:22:34 PM",234.4355,2025-05-29 21:22:34,21:22:34,0,0
"280","0","60.569","0.0038","-0.0136","67.0498","-0.0001","8.2146","65.9973","88.6727","0.0376","0","0.1386","-0.9602","-0.2108","-2.6845","1.9545","9.4954","7.5686","234.1529","0","0","9:22:35 PM",234.1529,2025-05-29 21:22:35,21:22:35,0,0
"281","-0.0001","58.2588","0.0037","-0.0114","67.0206","-0.0001","8.2801","66.0087","88.0466","0.0376","0","0.1397","-0.96","-0.2158","-2.646","1.9997","9.507","7.5779","233.8704","0","0","9:22:36 PM",233.8704,2025-05-29 21:22:36,21:22:36,0,0
"282","-0.0001","58.2329","0.0036","0.0095","66.7217","-0.0001","8.2313","65.9589","87.9664","0.0374","0","0.1388","-0.9596","-0.2171","-2.6489","2.0075","9.5036","7.5789","233.5894","0","0","9:22:38 PM",233.5894,2025-05-29 21:22:38,21:22:38,0,0
"283","0.0001","60.3045","0.0036","0.3279","67.7098","-0.0001","8.134","66.2971","87.9898","0.0377","0","0.1374","-0.9619","-0.208","-2.6609","1.9568","9.5107","7.5843","233.3084","0","0","9:22:39 PM",233.3084,2025-05-29 21:22:39,21:22:39,0,0
"284","0.0001","60.267","0.0036","-0.1536","67.8024","-0.0002","8.0261","66.9176","87.9853","0.0385","0","0.1356","-0.962","-0.2061","-2.6629","1.9472","9.5081","7.5797","233.0253","0","0","9:22:39 PM",233.0253,2025-05-29 21:22:39,21:22:39,0,0
"285","0","59.2534","0.0037","-0.0812","67.338","-0.0002","8.1106","67.0152","87.9931","0.0379","0","0.1366","-0.9586","-0.2131","-2.6552","2.0017","9.5081","7.573","232.7428","0","0","9:22:40 PM",232.7428,2025-05-29 21:22:40,21:22:40,0,0
"286","-0.0001","59.1704","0.0036","-0.0235","67.0054","-0.0002","8.1998","66.9944","87.9875","0.0374","0","0.1384","-0.9605","-0.2199","-2.6167","2.0402","9.4925","7.6224","232.4602","0","0","9:22:42 PM",232.4602,2025-05-29 21:22:42,21:22:42,0,0
"287","0","59.3731","0.0035","0.2939","67.7421","-0.0002","8.2874","66.9996","88.0009","0.0372","0","0.1399","-0.9605","-0.2134","-2.6652","1.9911","9.5054","7.5933","232.1792","0","0","9:22:43 PM",232.1792,2025-05-29 21:22:43,21:22:43,0,0
"288","0.0002","60.1135","0.0035","0.0349","68.672","-0.0002","8.0238","67.01","88.0009","0.0383","0","0.1355","-0.9617","-0.2037","-2.6109","1.9503","9.514","7.6079","231.8982","0","0","9:22:43 PM",231.8982,2025-05-29 21:22:43,21:22:43,0,0
"289","0","62.5874","0.0036","-0.2222","68.7389","-0.0002","9.0261","66.9685","88.0009","0.0382","0","0.1521","-0.9574","-0.2125","-2.5631","2.0145","9.5237","7.5498","231.6151","0","0","9:22:44 PM",231.6151,2025-05-29 21:22:44,21:22:44,0,0
"290","0","63.5841","0.0036","-0.0336","69.7005","-0.0002","7.5124","67.2227","88.0009","0.0375","0","0.1268","-0.9614","-0.2201","-2.7366","2.0476","9.4746","7.5484","231.3326","0","0","9:22:46 PM",231.3326,2025-05-29 21:22:46,21:22:46,0,0
"291","0.0001","65.1818","0.0037","0.3583","71.1592","-0.0001","8.7166","67.8691","88.0009","0.0375","0","0.1469","-0.9574","-0.2161","-2.5147","2.0663","9.5246","7.6024","231.05","0","0","9:22:46 PM",231.05,2025-05-29 21:22:46,21:22:46,0,0
"292","0.0001","63.4805","0.0037","-0.2508","71.7942","-0.0001","8.3398","68.0206","88.0009","0.0384","0","0.1408","-0.9606","-0.21","-2.6184","2.0267","9.4947","7.5642","230.769","0","0","9:22:48 PM",230.769,2025-05-29 21:22:48,21:22:48,0,0
"293","0","59.9158","0.0038","-0.0585","70.6463","0","8.7107","68.0019","88.0132","0.0378","0","0.1468","-0.9579","-0.2215","-2.6299","2.0494","9.5032","7.5651","230.4881","0","0","9:22:48 PM",230.4881,2025-05-29 21:22:48,21:22:48,0,0
"294","0","59.4432","0.0038","-0.0059","69.9195","0","8.6831","67.9729","88.0031","0.0373","0","0.1463","-0.9583","-0.2169","-2.5799","2.0193","9.5074","7.5787","230.205","0","0","9:22:49 PM",230.205,2025-05-29 21:22:49,21:22:49,0,0
"295","0","59.7535","0.0038","0.2585","69.759","0","8.4812","68.225","88.0165","0.0374","0","0.1431","-0.96","-0.2118","-2.6075","2.0117","9.5251","7.5807","229.9224","0","0","9:22:50 PM",229.9224,2025-05-29 21:22:50,21:22:50,0,0
"296","0.0001","59.7815","0.0038","-0.188","69.0085","0","8.4798","68.8684","87.9953","0.0384","0","0.143","-0.959","-0.2099","-2.6273","1.997","9.5053","7.5724","229.6398","0","0","9:22:51 PM",229.6398,2025-05-29 21:22:51,21:22:51,0,0
"297","0","58.9921","0.0039","-0.0406","67.5757","0","8.6321","69.0728","88.0443","0.038","0","0.1452","-0.9569","-0.2212","-2.6242","2.0372","9.4966","7.5708","229.3589","0","0","9:22:53 PM",229.3589,2025-05-29 21:22:53,21:22:53,0,0
"298","-0.0001","59.1286","0.0039","-0.0092","66.531","0","8.6873","68.9991","87.7959","0.0374","0","0.1464","-0.9584","-0.2212","-2.5921","2.0329","9.512","7.5774","229.0779","0","0","9:22:53 PM",229.0779,2025-05-29 21:22:53,21:22:53,0,0
"299","0","58.7075","0.0039","0.1395","66.4916","0.0001","8.6812","69.079","87.1341","0.0372","0","0.1464","-0.9594","-0.214","-2.6201","2.016","9.5018","7.5752","228.7948","0","0","9:22:54 PM",228.7948,2025-05-29 21:22:54,21:22:54,0,0
"300","0.0001","59.0279","0.0038","0.0095","66.8648","0.0001","8.303","68.8393","86.9369","0.0381","0","0.1403","-0.9615","-0.2053","-2.598","2.0021","9.5044","7.5999","228.5122","0","0","9:22:55 PM",228.5122,2025-05-29 21:22:55,21:22:55,0,0
"301","0","59.6803","0.0039","-0.0934","65.8347","0.0001","8.5102","68.2396","86.9792","0.0382","0","0.1435","-0.9589","-0.2173","-2.6573","2.0176","9.511","7.5743","228.2297","0","0","9:22:57 PM",228.2297,2025-05-29 21:22:57,21:22:57,0,0
"302","-0.0001","58.817","0.0039","-0.0201","65.5542","0.0001","8.6078","67.3628","86.8946","0.0376","0","0.1452","-0.9593","-0.2187","-2.5944","2.0271","9.5208","7.5801","227.9487","0","0","9:22:58 PM",227.9487,2025-05-29 21:22:58,21:22:58,0,0
"303","-0.0001","58.4963","0.0039","0.0255","65.5993","0.0003","8.6795","66.9799","87.0717","0.0373","0","0.1464","-0.9589","-0.2178","-2.6036","2.0205","9.5066","7.5819","227.6677","0","0","9:22:58 PM",227.6677,2025-05-29 21:22:58,21:22:58,0,0
"304","0.0001","59.1344","0.0039","0.2913","66.5763","0.0004","8.4857","66.8481","87.9173","0.0377","0","0.1434","-0.9608","-0.2091","-2.5963","2.0039","9.5254","7.6021","227.3846","0","0","9:22:59 PM",227.3846,2025-05-29 21:22:59,21:22:59,0,0
"305","0.0001","59.1997","0.0038","-0.2171","66.3352","0.0003","8.4148","66.1737","88.7964","0.0386","0","0.1423","-0.9617","-0.2066","-2.6168","1.9914","9.5019","7.589","227.1021","0","0","9:23:01 PM",227.1021,2025-05-29 21:23:01,21:23:01,0,0
"306","0","59.3962","0.0039","-0.051","65.9501","0.0003","8.5448","65.9516","89.1329","0.038","0","0.1441","-0.9586","-0.2173","-2.6124","2.0265","9.5023","7.5799","226.8195","0","0","9:23:02 PM",226.8195,2025-05-29 21:23:02,21:23:02,0,0
"307","-0.0001","58.5649","0.0039","-0.0196","65.5985","0.0003","8.54","66.0045","89.964","0.0375","0","0.1438","-0.9574","-0.2172","-2.5857","2.0162","9.5212","7.5834","226.5385","0","0","9:23:02 PM",226.5385,2025-05-29 21:23:02,21:23:02,0,0
"308","-0.0001","58.6226","0.0039","-0.0061","65.5724","0.0001","8.634","65.9879","90.8141","0.0373","0","0.1454","-0.9576","-0.2171","-2.5888","2.0349","9.5146","7.5823","226.2575","0","0","9:23:03 PM",226.2575,2025-05-29 21:23:03,21:23:03,0,0
"309","0","59.1008","0.0039","0.1376","65.5828","0.0001","8.5244","66.0128","91.1918","0.0373","0","0.1439","-0.9601","-0.2135","-2.6233","2.0155","9.5025","7.5833","225.9744","0","0","9:23:05 PM",225.9744,2025-05-29 21:23:05,21:23:05,0,0
"310","0","58.5808","0.004","-0.0994","65.3857","0.0001","8.602","65.9859","91.78","0.038","0","0.1449","-0.9579","-0.2159","-2.6215","2.0335","9.4959","7.5762","225.6919","0","0","9:23:05 PM",225.6919,2025-05-29 21:23:05,21:23:05,0,0
"311","0","58.5839","0.0039","-0.0261","64.4115","0.0001","8.6201","66.0523","92.0853","0.0377","0","0.1454","-0.9589","-0.2181","-2.5988","2.0335","9.5053","7.5765","362.3613","0","0.2","9:23:07 PM",362.3613,2025-05-29 21:23:07,21:23:07,0,0
"312","-0.0001","58.9504","0.004","-0.0098","63.9427","0.0002","8.6513","65.88","91.9739","0.0374","0","0.146","-0.9595","-0.2184","-2.6039","2.0392","9.5111","7.5809","389.6668","0","0.4","9:23:07 PM",389.6668,2025-05-29 21:23:07,21:23:07,0,0
"313","-0.0001","58.5063","0.0041","-0.0038","63.5881","0.0001","8.6996","65.2523","92.1611","0.0372","0","0.1468","-0.9588","-0.2207","-2.6026","2.033","9.5087","7.5775","44.4524","0","0.4","9:23:08 PM",44.4524,2025-05-29 21:23:08,21:23:08,0,0
"314","0","59.3666","0.0041","0.0319","64.1494","0.0002","8.6296","64.9555","92.6357","0.0372","0","0.1454","-0.9583","-0.215","-2.6221","2.0279","9.5041","7.5775","0","0","0.4","9:23:10 PM",0,2025-05-29 21:23:10,21:23:10,0,0
"315","0","58.8692","0.0041","0.0293","64.7282","0.0001","8.5557","65.0396","92.3204","0.0378","0","0.1445","-0.9603","-0.2119","-2.6095","2.027","9.5094","7.5844","62.1787","0","0.4","9:23:10 PM",62.1787,2025-05-29 21:23:10,21:23:10,62.1787,1
"316","0","58.1846","0.004","-0.0311","64.2187","0.0001","8.5626","64.8808","91.9505","0.0381","0","0.1443","-0.9588","-0.2187","-2.6013","2.0519","9.5078","7.5789","396.1854","0","0.4","9:23:12 PM",396.1854,2025-05-29 21:23:12,21:23:12,396.1854,1
"317","0","58.5796","0.004","-0.0127","63.8283","0.0001","8.6767","64.2655","92.0218","0.0378","0","0.1464","-0.9592","-0.2204","-2.5895","2.0439","9.5095","7.5764","275.6429","0","0.4","9:23:12 PM",275.6429,2025-05-29 21:23:12,21:23:12,275.6429,1
"318","-0.0001","59.1469","0.0039","-0.0048","63.5174","0.0001","8.7085","63.9345","91.9995","0.0375","0","0.1468","-0.9585","-0.2198","-2.5842","2.0471","9.5158","7.5799","0","0","0.4","9:23:13 PM",0,2025-05-29 21:23:13,21:23:13,0,0
"319","0","58.499","0.0039","0.0154","64.1392","0.0001","8.6463","63.9988","92.0118","0.0374","0","0.1459","-0.9597","-0.2149","-2.6007","2.0308","9.5065","7.5767","0","0","0.4","9:23:14 PM",0,2025-05-29 21:23:14,21:23:14,0,0
"320","0","59.6208","0.0039","0.1839","65.1387","0.0001","8.5992","63.9698","92.0017","0.0378","0","0.1453","-0.9609","-0.2108","-2.5687","1.9838","9.5286","7.5863","220.6524","0","0.4","9:23:16 PM",220.6524,2025-05-29 21:23:16,21:23:16,220.6524,1
"321","0","59.652","0.0039","-0.1171","65.6618","0.0001","8.6198","63.9957","91.9973","0.0386","0","0.1454","-0.9594","-0.2112","-2.5759","2.017","9.5247","7.5823","396.1854","0","0.4","9:23:17 PM",396.1854,2025-05-29 21:23:17,21:23:17,396.1854,1
"322","0","58.7624","0.0038","-0.0309","64.8465","0","8.6622","63.9656","92.0296","0.0381","0","0.146","-0.9581","-0.2171","-2.5713","2.0459","9.5118","7.5834","117.1708","0","0.4","9:23:17 PM",117.1708,2025-05-29 21:23:17,21:23:17,117.1708,1
"323","-0.0001","58.8278","0.0038","-0.0175","64.7451","0","8.6262","64.0538","91.9382","0.0376","0","0.1452","-0.957","-0.2214","-2.5631","2.0513","9.5213","7.5908","0","0","0.4","9:23:18 PM",0,2025-05-29 21:23:18,21:23:18,0,0
"324","0","59.0106","0.0039","0.0434","64.9026","0","8.5788","64.6671","91.34","0.0375","0","0.1446","-0.9583","-0.2149","-2.5911","2.0424","9.5128","7.5777","2.9545","0","0.4","9:23:20 PM",2.9545,2025-05-29 21:23:20,21:23:20,2.9545,1
"325","0.0001","61.958","0.0039","0.1532","66.4413","0","8.5716","65.0281","90.9689","0.0381","0","0.1445","-0.9587","-0.2113","-2.5587","1.9933","9.5244","7.5878","376.1726","0","0.4","9:23:21 PM",376.1726,2025-05-29 21:23:21,21:23:21,376.1726,1
"326","0.0001","61.9942","0.0039","-0.1441","66.4479","0","8.6686","64.9981","91.0325","0.0388","0","0.1461","-0.9586","-0.2106","-2.5647","2.0342","9.5177","7.589","354.88","0","0.4","9:23:21 PM",354.88,2025-05-29 21:23:21,21:23:21,354.88,1
"327","0","58.4356","0.004","-0.0373","66.0607","0","8.5414","64.9991","90.9545","0.0382","0","0.1439","-0.9585","-0.2172","-2.5583","2.0507","9.5231","7.5945","0","0","0.4","9:23:22 PM",0,2025-05-29 21:23:22,21:23:22,0,0
"328","-0.0001","58.4282","0.0039","-0.0138","65.9335","0","8.6031","65.052","90.3573","0.0376","0","0.1448","-0.9574","-0.2201","-2.5518","2.0606","9.5124","7.6047","0","0","0.4","9:23:24 PM",0,2025-05-29 21:23:24,21:23:24,0,0
"329","0","58.6821","0.0039","0.0184","66.2941","0","8.6293","65.6466","89.9763","0.0373","0","0.1454","-0.9578","-0.2151","-2.5949","2.0291","9.5095","7.5787","141.4153","0","0.4","9:23:24 PM",141.4153,2025-05-29 21:23:24,21:23:24,141.4153,1
"330","0.0001","61.334","0.0039","0.1723","67.0123","0.0001","8.5177","66.0346","89.9551","0.0376","0","0.1437","-0.9598","-0.2086","-2.5719","1.9958","9.5224","7.5932","396.1854","0","0.4","9:23:26 PM",396.1854,2025-05-29 21:23:26,21:23:26,396.1854,1
"331","0.0001","62.5703","0.0039","-0.1532","67.1043","0","8.4767","65.9942","89.359","0.0385","0","0.143","-0.9595","-0.2131","-2.5854","2.0202","9.5245","7.5785","196.4079","0","0.4","9:23:26 PM",196.4079,2025-05-29 21:23:26,21:23:26,196.4079,1
"332","0","58.4222","0.0039","-0.0262","66.3372","0","8.2146","66.0108","88.9702","0.038","0","0.1385","-0.9592","-0.2207","-2.6155","2.0675","9.4968","7.5797","0","0","0.4","9:23:27 PM",0,2025-05-29 21:23:27,21:23:27,0,0
"333","-0.0001","58.0416","0.0039","-0.0044","66.1768","0","8.3641","66.0035","88.9925","0.0374","0","0.141","-0.959","-0.2197","-2.6102","2.0656","9.4886","7.5898","0","0","0.4","9:23:29 PM",0,2025-05-29 21:23:29,21:23:29,0,0
"334","0","59.2073","0.0039","0.2116","65.972","0.0001","8.5437","66.0077","88.9902","0.0374","0","0.1441","-0.959","-0.2142","-2.6237","2.0239","9.5085","7.5854","299.89","0","0.4","9:23:29 PM",299.89,2025-05-29 21:23:29,21:23:29,299.89,1
"335","0.0001","60.5163","0.0038","-0.0431","66.7429","0.0001","8.5685","66.0014","88.9914","0.0384","0","0.1449","-0.9615","-0.2097","-2.5868","1.9764","9.5191","7.6025","389.6668","0","0.4","9:23:30 PM",389.6668,2025-05-29 21:23:30,21:23:30,389.6668,1
"336","0","59.7801","0.0039","-0.1034","65.9794","0","8.5149","66.0014","88.9914","0.0383","0","0.1434","-0.9579","-0.2157","-2.6008","2.0291","9.5063","7.5911","44.4502","0","0.4","9:23:31 PM",44.4502,2025-05-29 21:23:31,21:23:31,44.4502,1
"337","-0.0001","58.3381","0.0038","-0.0189","65.3327","0","8.3443","66.0014","88.9914","0.0377","0","0.1406","-0.959","-0.2195","-2.6188","2.0572","9.4977","7.5999","0","0","0.4","9:23:32 PM",0,2025-05-29 21:23:32,21:23:32,0,0
"338","-0.0001","58.8015","0.0037","-0.0065","65.2168","0.0001","8.3261","66.0056","89.0203","0.0372","0","0.1403","-0.9585","-0.2178","-2.63","2.0557","9.49","7.5945","62.1782","0","0.4","9:23:33 PM",62.1782,2025-05-29 21:23:33,21:23:33,62.1782,1
"339","0","58.6055","0.0035","0.0303","65.565","0.0001","8.4251","66.0035","89.5696","0.037","0","0.1421","-0.9592","-0.215","-2.6391","2.0199","9.5059","7.5708","396.1854","0","0.4","9:23:35 PM",396.1854,2025-05-29 21:23:35,21:23:35,396.1854,1
"340","0","60.3698","0.0035","-0.0021","65.9101","0","8.5473","66.0066","90.0208","0.0376","0","0.1442","-0.9592","-0.2111","-2.6203","1.9995","9.5047","7.5846","275.6429","0","0.4","9:23:36 PM",275.6429,2025-05-29 21:23:36,21:23:36,275.6429,1
"341","0","59.5754","0.0034","-0.0251","65.4023","0","8.6017","66.0045","89.993","0.0379","0","0.1452","-0.9597","-0.2176","-2.6099","2.0349","9.5039","7.5752","0","0","0.4","9:23:36 PM",0,2025-05-29 21:23:36,21:23:36,0,0
"342","0","58.5124","0.0033","-0.0067","64.7421","0","8.5902","66.0056","90.003","0.0375","0","0.1447","-0.9582","-0.2199","-2.6075","2.0451","9.5046","7.5767","0","0","0.4","9:23:37 PM",0,2025-05-29 21:23:37,21:23:37,0,0
"343","0","58.6836","0.0032","0.0015","64.5964","0.0001","8.5292","65.9921","89.9996","0.0373","0","0.1437","-0.9581","-0.2187","-2.6058","2.0321","9.5079","7.5755","220.6529","0","0.4","9:23:39 PM",220.6529,2025-05-29 21:23:39,21:23:39,220.6529,1
"344","0","58.47","0.0032","0.0172","65.0698","0.0001","8.462","65.4671","90.0019","0.0372","0","0.1425","-0.9579","-0.2148","-2.6253","2.0245","9.5005","7.5787","396.1854","0","0.4","9:23:40 PM",396.1854,2025-05-29 21:23:40,21:23:40,396.1854,1
"345","0","59.4223","0.0033","0.046","65.8351","0.0001","8.5222","64.9846","90.0019","0.0376","0","0.1438","-0.9599","-0.2128","-2.609","1.99","9.5126","7.5811","117.1687","0","0.4","9:23:40 PM",117.1687,2025-05-29 21:23:40,21:23:40,117.1687,1
"346","0","59.2578","0.0032","-0.0382","65.4657","0.0001","8.5922","65.0012","90.0019","0.0381","0","0.1449","-0.9587","-0.218","-2.61","2.041","9.5121","7.5757","0","0","0.4","9:23:41 PM",0,2025-05-29 21:23:41,21:23:41,0,0
"347","0","58.1606","0.0032","-0.0069","65.2097","0.0001","8.6268","65.0012","90.0019","0.0376","0","0.1453","-0.9577","-0.2192","-2.6031","2.0427","9.5065","7.5799","2.9545","0","0.4","9:23:43 PM",2.9545,2025-05-29 21:23:43,21:23:43,2.9545,1
"348","0","58.242","0.0032","-0.002","65.2137","0","8.6307","65.0012","90.0019","0.0374","0","0.1454","-0.9579","-0.2216","-2.589","2.0438","9.5059","7.5779","376.1726","0","0.4","9:23:43 PM",376.1726,2025-05-29 21:23:43,21:23:43,376.1726,1
"349","0","58.5265","0.0032","0.0149","65.5939","0","8.5651","65.0012","90.5021","0.0373","0","0.1442","-0.9575","-0.2158","-2.6081","2.0198","9.5027","7.5742","354.88","0","0.4","9:23:45 PM",354.88,2025-05-29 21:23:45,21:23:45,354.88,1
"350","0","61.7609","0.0031","0.0881","66.6156","0","8.5696","65.0074","91.0135","0.0378","0","0.1446","-0.9597","-0.2126","-2.597","1.9908","9.5215","7.5876","0","0","0.4","9:23:45 PM",0,2025-05-29 21:23:45,21:23:45,0,0
"351","0","60.6962","0.003","-0.0703","66.6667","0","8.6036","64.9908","91.0035","0.0384","0","0.145","-0.9578","-0.2165","-2.5991","2.0259","9.5116","7.5811","0","0","0.4","9:23:46 PM",0,2025-05-29 21:23:46,21:23:46,0,0
"352","-0.0001","59.1649","0.0029","-0.0162","66.1987","0","8.6307","65.4639","91.0135","0.038","0","0.1455","-0.9585","-0.2199","-2.5729","2.0607","9.5039","7.5898","141.4158","0","0.4","9:23:48 PM",141.4158,2025-05-29 21:23:48,21:23:48,141.4158,1
"353","-0.0001","58.9768","0.0028","-0.0061","66.1253","0","8.5743","65.9879","90.5367","0.0376","0","0.1442","-0.9568","-0.2261","-2.5487","2.1171","9.4995","7.6281","396.1854","0","0.4","9:23:48 PM",396.1854,2025-05-29 21:23:48,21:23:48,396.1854,1
"354","0","59.8897","0.0028","0.1499","67.1153","0","8.5975","65.9994","90.013","0.0375","0","0.1454","-0.9612","-0.2146","-2.5809","2.031","9.5176","7.5937","196.4058","0","0.4","9:23:49 PM",196.4058,2025-05-29 21:23:49,21:23:49,196.4058,1
"355","0.0002","63.133","0.0029","0.2259","68.9922","0","8.2913","65.9911","89.9996","0.0384","0","0.1406","-0.965","-0.2","-2.5922","1.8839","9.5327","7.6002","0","0","0.4","9:23:51 PM",0,2025-05-29 21:23:51,21:23:51,0,0
"356","0.0001","70.1185","0.0029","-0.2499","68.1214","0","7.1708","65.9776","90.023","0.0387","0","0.1212","-0.963","-0.2125","-2.7606","1.7757","9.5039","7.4232","0","0","0.4","9:23:51 PM",0,2025-05-29 21:23:51,21:23:51,0,0
"357","0","68.443","0.0027","-0.0266","77.3908","0","7.5584","66.3978","89.5752","0.0379","0","0.1275","-0.961","-0.2154","-2.5736","1.8779","9.5469","7.5738","299.89","0","0.4","9:23:52 PM",299.89,2025-05-29 21:23:52,21:23:52,299.89,1
"358","0.0001","70.5959","0.0028","0.3384","126.1727","-0.0001","6.9504","67.4032","89.017","0.0378","0","0.118","-0.9674","-0.1902","-2.6927","1.8217","9.5273","7.6655","389.6668","0","0.4","9:23:54 PM",389.6668,2025-05-29 21:23:54,21:23:54,389.6668,1
"359","0.0002","62.3916","0.0029","-0.0618","80.749","-0.0001","6.8132","68.3132","89.0326","0.0388","0","0.1154","-0.9662","-0.1907","-2.7133","1.931","9.4886","7.6236","44.4502","0","0.4","9:23:55 PM",44.4502,2025-05-29 21:23:55,21:23:55,44.4502,1
"360","0.0001","59.8288","0.0029","-0.1842","65.7641","-0.0001","7.27","70.1737","88.6003","0.0387","0","0.1229","-0.9639","-0.2115","-2.8118","1.9495","9.4832","7.5775","0","0","0.4","9:23:55 PM",0,2025-05-29 21:23:55,21:23:55,0,0
"361","-0.0001","60.0707","0.003","-0.0249","69.4754","-0.0001","7.3347","71.9324","88.0533","0.038","0","0.1238","-0.9625","-0.2094","-2.7109","1.9495","9.4983","7.6067","57.1927","0","0.4","9:23:56 PM",57.1927,2025-05-29 21:23:56,21:23:56,57.1927,1
"362","0","59.1643","0.003","0.1768","69.3992","-0.0001","7.2419","72.0518","87.5864","0.0377","0","0.1226","-0.9646","-0.2073","-2.7289","1.9495","9.4935","7.6089","396.1854","0","0.4","9:23:58 PM",396.1854,2025-05-29 21:23:58,21:23:58,396.1854,1
"363","0.0001","59.2657","0.003","-0.0473","69.3377","0","7.0704","72.0434","87.026","0.0387","0","0.1197","-0.9651","-0.2012","-2.72","1.9456","9.4858","7.6302","263.4777","0","0.4","9:23:59 PM",263.4777,2025-05-29 21:23:59,21:23:59,263.4777,1
"364","0","60.0442","0.0031","-0.0869","68.194","0","7.2288","71.6575","86.9815","0.0387","0","0.1223","-0.9653","-0.2117","-2.7629","1.9497","9.4827","7.6115","0","0","0.4","9:23:59 PM",0,2025-05-29 21:23:59,21:23:59,0,0
"365","-0.0001","59.6109","0.0031","-0.0136","66.7382","0","7.3219","71.066","86.9971","0.0381","0","0.1238","-0.9629","-0.2106","-2.6978","1.937","9.4994","7.618","0","0","0.4","9:24:00 PM",0,2025-05-29 21:24:00,21:24:00,0,0
"366","-0.0001","58.6906","0.003","0.0424","66.6542","0","7.3052","71.0048","86.9815","0.0378","0","0.1235","-0.9634","-0.2095","-2.7086","1.9419","9.5022","7.617","232.1236","0","0.4","9:24:02 PM",232.1236,2025-05-29 21:24:02,21:24:02,232.1236,1
"367","0.0001","59.1164","0.003","0.1652","66.6902","0","7.2472","71.01","86.9882","0.0384","0","0.1226","-0.9641","-0.2021","-2.6973","1.9314","9.5011","7.6281","396.1854","0","0.4","9:24:02 PM",396.1854,2025-05-29 21:24:02,21:24:02,396.1854,1
"368","0","60.1076","0.003","-0.1529","65.9561","0","7.3046","71.0017","86.9804","0.039","0","0.1235","-0.9633","-0.2087","-2.754","1.9479","9.4917","7.62","105.1525","0","0.4","9:24:04 PM",105.1525,2025-05-29 21:24:04,21:24:04,105.1525,1
"369","-0.0001","59.0426","0.003","-0.0232","65.0963","0","7.3749","71.0224","86.9737","0.0385","0","0.1248","-0.9646","-0.2107","-2.7074","1.9446","9.5043","7.6192","0","0","0.4","9:24:04 PM",0,2025-05-29 21:24:04,21:24:04,0,0
"370","-0.0001","59.1026","0.0029","-0.0089","64.8461","0","7.3953","71.0152","86.987","0.0381","0","0.1251","-0.9639","-0.2099","-2.6915","1.9366","9.5051","7.6212","9.7525","0","0.4","9:24:05 PM",9.7525,2025-05-29 21:24:05,21:24:05,9.7525,1
"371","-0.0001","58.9284","0.0029","-0.0038","65.1036","0","7.4499","71.0629","86.9414","0.038","0","0.1258","-0.9622","-0.2114","-2.7012","1.9347","9.4972","7.6125","380.8463","0","0.4","9:24:07 PM",380.8463,2025-05-29 21:24:07,21:24:07,380.8463,1
"372","0","59.0328","0.0028","0.0634","65.5816","0.0001","7.468","70.7236","87.2801","0.0381","0","0.1262","-0.9627","-0.2064","-2.7152","1.9283","9.492","7.6054","342.7153","0","0.4","9:24:07 PM",342.7153,2025-05-29 21:24:07,21:24:07,342.7153,1
"373","0","59.1596","0.0028","-0.0125","65.888","0.0001","7.4636","69.8209","88.1825","0.0389","0","0.1263","-0.9636","-0.2088","-2.7144","1.934","9.4951","7.6134","0","0","0.4","9:24:08 PM",0,2025-05-29 21:24:08,21:24:08,0,0
"374","0","59.0746","0.0027","-0.0246","64.9101","0.0001","7.4513","68.7999","89.2209","0.0388","0","0.1261","-0.964","-0.2104","-2.7081","1.9395","9.5034","7.6146","0","0","0.4","9:24:10 PM",0,2025-05-29 21:24:10,21:24:10,0,0
"375","-0.0001","58.3095","0.0028","-0.0088","64.1824","0.0001","7.5149","67.8173","89.9016","0.0385","0","0.1271","-0.9634","-0.2126","-2.6963","1.9344","9.4964","7.6212","153.09","0","0.4","9:24:10 PM",153.09,2025-05-29 21:24:10,21:24:10,153.09,1
"376","-0.0001","58.4877","0.0028","-0.0044","63.7246","0.0001","7.5612","66.7423","90.2793","0.0385","0","0.1277","-0.9623","-0.2113","-2.7169","1.9295","9.5052","7.6226","396.1854","0","0.4","9:24:11 PM",396.1854,2025-05-29 21:24:11,21:24:11,396.1854,1
"377","0","59.1158","0.0028","0.0023","63.7824","0","7.5015","66.0803","91.233","0.0384","0","0.1269","-0.963","-0.2093","-2.7176","1.9335","9.5036","7.6145","184.0296","0","0.4","9:24:13 PM",184.0296,2025-05-29 21:24:13,21:24:13,184.0296,1
"378","0","58.7594","0.0029","0.1748","65.0817","0","7.417","65.6756","91.9338","0.0386","0","0.1255","-0.9637","-0.2051","-2.705","1.9454","9.504","7.6146","0","0","0.4","9:24:14 PM",0,2025-05-29 21:24:14,21:24:14,0,0
"379","0.0001","59.7279","0.0029","-0.0533","66.0233","0","7.4309","65.0748","92.3126","0.0396","0","0.1253","-0.9612","-0.2057","-2.6837","1.9465","9.4995","7.6256","0","0","0.4","9:24:14 PM",0,2025-05-29 21:24:14,21:24:14,0,0
"380","0","58.3701","0.0029","-0.0511","64.9789","0","7.557","64.9348","92.9209","0.0394","0","0.1277","-0.9627","-0.2098","-2.6981","1.9498","9.4978","7.619","311.5653","0","0.4","9:24:15 PM",311.5653,2025-05-29 21:24:15,21:24:15,311.5653,1
"381","0","58.7071","0.0031","-0.0268","64.6241","0","7.5177","64.9856","93.0669","0.0388","0","0.1272","-0.9643","-0.2115","-2.6925","1.9398","9.5071","7.628","387.1083","0","0.4","9:24:17 PM",387.1083,2025-05-29 21:24:17,21:24:17,387.1083,1
"382","0","58.1433","0.0032","-0.0163","64.5064","0","7.5213","64.9732","93.019","0.0386","0","0.1272","-0.9632","-0.2116","-2.6933","1.9371","9.5037","7.6214","35.1478","0","0.4","9:24:18 PM",35.1478,2025-05-29 21:24:18,21:24:18,35.1478,1
"383","0","58.2402","0.0033","0.0268","64.7561","0","7.4772","64.9949","93.0446","0.0385","0","0.1264","-0.9631","-0.2093","-2.7069","1.9232","9.506","7.6091","0","0","0.4","9:24:18 PM",0,2025-05-29 21:24:18,21:24:18,0,0
"384","0.0001","58.6614","0.0035","0.0417","64.8558","0","7.446","64.9877","93.0011","0.0392","0","0.1259","-0.9638","-0.2057","-2.6869","1.8921","9.5173","7.6156","74.0555","0","0.4","9:24:19 PM",74.0555,2025-05-29 21:24:19,21:24:19,74.0555,1
"385","0","58.7089","0.0035","-0.0628","64.5237","0","7.4784","65.0147","93.0568","0.0395","0","0.1265","-0.9636","-0.2066","-2.6913","1.9406","9.5042","7.6178","396.1854","0","0.4","9:24:21 PM",396.1854,2025-05-29 21:24:21,21:24:21,396.1854,1
"386","0","58.6833","0.0036","-0.0201","64.1635","0","7.4731","64.9929","92.7649","0.039","0","0.1264","-0.9636","-0.2094","-2.7001","1.9426","9.5009","7.6204","262.841","0","0.4","9:24:21 PM",262.841,2025-05-29 21:24:21,21:24:21,262.841,1
"387","0","58.7269","0.0037","-0.0115","63.8471","0","7.4954","65.0281","92.121","0.0387","0","0.1266","-0.9624","-0.2101","-2.6855","1.944","9.5004","7.6291","0","0","0.4","9:24:23 PM",0,2025-05-29 21:24:23,21:24:23,0,0
"388","0","58.7545","0.0038","-0.0031","64.1639","0.0001","7.4778","64.9846","91.9605","0.0386","0","0.1264","-0.963","-0.2093","-2.7116","1.9347","9.4997","7.616","0","0","0.4","9:24:23 PM",0,2025-05-29 21:24:23,21:24:23,0,0
"389","0","58.5494","0.0038","0.1236","64.8513","0.0001","7.5676","65.0676","92.004","0.0388","0","0.128","-0.963","-0.2053","-2.6836","1.9058","9.5054","7.6146","232.7343","0","0.4","9:24:24 PM",232.7343,2025-05-29 21:24:24,21:24:24,232.7343,1
"390","0","59.3317","0.0038","-0.084","65.2669","0.0001","7.5537","64.747","91.9817","0.0396","0","0.1276","-0.9622","-0.2068","-2.6975","1.9248","9.5047","7.6135","396.1854","0","0.4","9:24:26 PM",396.1854,2025-05-29 21:24:26,21:24:26,396.1854,1
"391","0","58.6647","0.0038","-0.0247","64.2826","0.0001","7.4839","64.4004","92.0084","0.0392","0","0.1265","-0.9632","-0.2086","-2.6965","1.9382","9.5083","7.6212","104.3213","0","0.4","9:24:26 PM",104.3213,2025-05-29 21:24:26,21:24:26,104.3213,1
"392","0","58.9328","0.0038","-0.0127","63.8032","0.0001","7.47","64.639","91.9917","0.0389","0","0.1262","-0.9625","-0.2106","-2.7","1.9436","9.4968","7.618","0","0","0.4","9:24:27 PM",0,2025-05-29 21:24:27,21:24:27,0,0
"393","0","58.3229","0.0039","-0.0059","63.9222","0.0001","7.5511","64.223","92.0173","0.0388","0","0.1275","-0.962","-0.2085","-2.7053","1.9365","9.4952","7.6123","9.937","0","0.4","9:24:29 PM",9.937,2025-05-29 21:24:29,21:24:29,9.937,1
"394","0","58.5279","0.0041","0.0444","64.6482","0.0001","7.4789","63.8287","92.0987","0.0388","0","0.1266","-0.9646","-0.2057","-2.6966","1.917","9.5066","7.6089","381.4735","0","0.4","9:24:29 PM",381.4735,2025-05-29 21:24:29,21:24:29,381.4735,1
"395","0.0001","58.8634","0.0041","-0.0058","64.8755","0.0001","7.6055","63.9542","91.8224","0.0395","0","0.1286","-0.9633","-0.2054","-2.693","1.9203","9.5125","7.6123","341.8666","0","0.4","9:24:30 PM",341.8666,2025-05-29 21:24:30,21:24:30,341.8666,1
"396","0","58.257","0.0041","-0.0254","64.8763","0","7.5726","64.0102","91.1884","0.0395","0","0.1279","-0.9624","-0.2114","-2.6927","1.9444","9.5033","7.6224","0","0","0.4","9:24:31 PM",0,2025-05-29 21:24:31,21:24:31,0,0
"397","0","58.9137","0.0042","-0.0117","64.3726","0","7.5185","63.9449","90.9611","0.0391","0","0.1271","-0.963","-0.212","-2.6938","1.9462","9.5056","7.6227","0","0","0.4","9:24:33 PM",0,2025-05-29 21:24:33,21:24:33,0,0
"398","0","59.1658","0.0042","-0.0059","64.6569","0","7.5492","64.1503","91.0213","0.039","0","0.1276","-0.9625","-0.2099","-2.6945","1.95","9.4995","7.6268","153.9017","0","0.4","9:24:33 PM",153.9017,2025-05-29 21:24:33,21:24:33,153.9017,1
"399","0","59.5424","0.0043","0.0924","65.5981","0","7.4917","64.7822","90.9779","0.0391","0","0.1268","-0.9642","-0.2066","-2.6955","1.9206","9.5065","7.6146","396.1854","0","0.4","9:24:34 PM",396.1854,2025-05-29 21:24:34,21:24:34,396.1854,1
"400","0.0001","60.1918","0.0043","0.0405","66.596","0","7.5902","65.0406","91.0302","0.04","0","0.1286","-0.9648","-0.2025","-2.6654","1.9045","9.5145","7.6226","183.1809","0","0.4","9:24:36 PM",183.1809,2025-05-29 21:24:36,21:24:36,183.1809,1
"401","0","59.5817","0.0043","-0.0761","65.9802","0","7.4842","64.9804","90.8731","0.0401","0","0.1264","-0.9621","-0.2072","-2.6817","1.9652","9.5003","7.6261","0","0","0.4","9:24:37 PM",0,2025-05-29 21:24:37,21:24:37,0,0
"402","-0.0001","58.5027","0.0043","-0.0198","65.7997","0","7.4831","65.0084","90.2392","0.0394","0","0.1262","-0.9614","-0.2113","-2.6647","1.9835","9.507","7.6359","0","0","0.4","9:24:37 PM",0,2025-05-29 21:24:37,21:24:37,0,0
"403","-0.0001","58.9317","0.0044","-0.0032","65.9042","0","7.5205","64.9638","89.9729","0.0391","0","0.1269","-0.962","-0.2135","-2.6486","1.9834","9.5027","7.6458","312.5794","0","0.4","9:24:38 PM",312.5794,2025-05-29 21:24:38,21:24:38,312.5794,1
"404","0.0001","59.1964","0.0044","0.2466","66.9177","0","7.4627","65.1236","90.0019","0.0393","0","0.1261","-0.9632","-0.2016","-2.6595","1.933","9.5116","7.6226","386.6651","0","0.4","9:24:40 PM",386.6651,2025-05-29 21:24:40,21:24:40,386.6651,1
"405","0.0002","60.9732","0.0045","-0.0746","67.9784","0","7.4747","65.7649","90.013","0.0403","0","0.1264","-0.9636","-0.2009","-2.6541","1.9352","9.5118","7.6361","34.7227","0","0.4","9:24:40 PM",34.7227,2025-05-29 21:24:40,21:24:40,34.7227,1
"406","0","59.1168","0.0045","-0.0955","67.472","0","7.4072","66.0108","89.8927","0.04","0","0.1252","-0.9628","-0.2079","-2.686","1.9713","9.5028","7.6386","0","0","0.4","9:24:42 PM",0,2025-05-29 21:24:42,21:24:42,0,0
"407","0","58.3849","0.0045","-0.0229","67.0398","0","7.388","66.1","89.2532","0.0393","0","0.1249","-0.9634","-0.2102","-2.682","1.9613","9.4859","7.6369","74.8682","0","0.4","9:24:42 PM",74.8682,2025-05-29 21:24:42,21:24:42,74.8682,1
"408","0","58.5325","0.0045","0.0234","66.7025","0.0001","7.48","66.7651","88.9546","0.0388","0","0.1265","-0.9635","-0.2074","-2.7078","1.9491","9.5048","7.6224","396.1854","0","0.4","9:24:43 PM",396.1854,2025-05-29 21:24:43,21:24:43,396.1854,1
"409","0.0001","60.7474","0.0045","0.1993","67.0059","0.0001","7.552","67.0546","89.0025","0.0393","0","0.1277","-0.9635","-0.2027","-2.669","1.91","9.5192","7.6291","262.2054","0","0.4","9:24:45 PM",262.2054,2025-05-29 21:24:45,21:24:45,262.2054,1
"410","0","66.0784","0.0045","-0.1347","66.4611","0.0001","7.4254","67.0204","88.9813","0.04","0","0.1256","-0.9642","-0.2044","-2.6763","1.9607","9.4831","7.627","0","0","0.4","9:24:45 PM",0,2025-05-29 21:24:45,21:24:45,0,0
"411","0","59.5998","0.0046","-0.0139","65.8019","0.0001","7.5174","67.0141","88.9836","0.0397","0","0.1272","-0.9638","-0.2081","-2.6771","1.9651","9.5056","7.6347","0","0","0.4","9:24:46 PM",0,2025-05-29 21:24:46,21:24:46,0,0
"412","-0.0001","58.431","0.0045","-0.0098","65.3289","0.0001","7.4212","67.0453","88.9836","0.0396","0","0.1255","-0.9632","-0.2095","-2.6784","1.9521","9.4979","7.6394","233.5465","0","0.4","9:24:48 PM",233.5465,2025-05-29 21:24:48,21:24:48,233.5465,1
"413","0","58.38","0.0045","-0.0052","65.0726","0.0001","7.4728","66.9332","88.9858","0.0397","0","0.1264","-0.9639","-0.205","-2.6955","1.9452","9.4944","7.6202","396.1854","0","0.4","9:24:48 PM",396.1854,2025-05-29 21:24:48,21:24:48,396.1854,1
"414","0","58.7142","0.0046","0.0167","65.8463","0.0002","7.4881","66.3106","89.0014","0.0398","0","0.1265","-0.9625","-0.2046","-2.6993","1.9234","9.5059","7.6145","103.7853","0","0.4","9:24:49 PM",103.7853,2025-05-29 21:24:49,21:24:49,103.7853,1
"415","0","60.5084","0.0045","-0.0106","65.4672","0.0002","7.5291","65.9578","88.978","0.0402","0","0.1272","-0.9622","-0.208","-2.7063","1.9421","9.5028","7.6135","0","0","0.4","9:24:50 PM",0,2025-05-29 21:24:50,21:24:50,0,0
"416","0","57.7152","0.0045","-0.006","64.7396","0.0002","7.5322","66.0305","89.0538","0.0403","0","0.1273","-0.9634","-0.2115","-2.7008","1.9397","9.498","7.6232","10.1215","0","0.4","9:24:52 PM",10.1215,2025-05-29 21:24:52,21:24:52,10.1215,1
"417","0","58.611","0.0045","-0.0041","64.5067","0.0002","7.6066","65.9236","89.6665","0.0403","0","0.1287","-0.9634","-0.2087","-2.7019","1.9407","9.4945","7.6227","382.1017","0","0.425","9:24:52 PM",382.1017,2025-05-29 21:24:52,21:24:52,382.1017,1
"418","0","58.9843","0.0045","-0.0038","64.3049","0.0002","7.6052","65.327","90.0264","0.0403","0","0.1284","-0.9613","-0.2116","-2.7074","1.9415","9.5034","7.6202","341.4419","0","0.45","9:24:53 PM",341.4419,2025-05-29 21:24:53,21:24:53,341.4419,1
"419","0","59.201","0.0046","0.0056","64.8488","0.0001","7.5319","64.9493","89.9896","0.0404","0","0.1272","-0.9616","-0.2052","-2.7111","1.932","9.5005","7.6168","0","0","0.45","9:24:55 PM",0,2025-05-29 21:24:55,21:24:55,0,0
"420","0","59.272","0.0046","0.1173","65.2075","0.0001","7.4605","65.0053","89.9841","0.0407","0","0.1262","-0.964","-0.2025","-2.6779","1.9091","9.5146","7.6168","0","0","0.45","9:24:56 PM",0,2025-05-29 21:24:56,21:24:56,0,0
"421","0","61.9711","0.0046","-0.0296","65.2268","0.0001","7.5849","64.9898","90.0476","0.0412","0","0.1283","-0.9636","-0.2044","-2.6911","1.9464","9.5023","7.6234","170.8408","0","0.45","9:24:56 PM",170.8408,2025-05-29 21:24:56,21:24:56,170.8408,1
"422","0","58.6581","0.0046","-0.0199","65.2004","0.0001","7.4784","64.9981","90.6347","0.0412","0","0.1263","-0.962","-0.2126","-2.693","1.9635","9.497","7.6367","444.9478","0","0.45","9:24:57 PM",444.9478,2025-05-29 21:24:57,21:24:57,444.9478,1
"423","-0.0001","58.6672","0.0046","-0.019","64.872","0","7.5905","64.9846","91.0414","0.0411","0","0.1283","-0.9629","-0.2166","-2.67","1.9835","9.5007","7.6379","201.7889","0","0.45","9:24:59 PM",201.7889,2025-05-29 21:24:59,21:24:59,201.7889,1
"424","0","58.9824","0.0046","-0.0018","64.8911","0.0001","7.5355","64.996","90.9912","0.0411","0","0.1276","-0.9644","-0.2078","-2.6937","1.9361","9.5099","7.619","0","0","0.45","9:24:59 PM",0,2025-05-29 21:24:59,21:24:59,0,0
"425","0.0001","59.9108","0.0047","0.1077","65.586","0.0001","7.4909","64.9929","91.0514","0.0413","0","0.1268","-0.9641","-0.2033","-2.6689","1.9081","9.5146","7.6168","0","0","0.45","9:25:01 PM",0,2025-05-29 21:25:01,21:25:01,0,0
"426","0.0001","62.3722","0.0047","-0.0263","66.1556","0.0001","7.5715","65.0012","91.6118","0.0418","0","0.128","-0.9633","-0.2067","-2.6918","1.9341","9.4957","7.6205","349.0675","0","0.45","9:25:01 PM",349.0675,2025-05-29 21:25:01,21:25:01,349.0675,1
"427","0","59.3065","0.0047","-0.0277","65.9336","0","7.5035","64.9866","92.0485","0.0418","0","0.1268","-0.9626","-0.2101","-2.6958","1.9622","9.4933","7.6313","432.7588","0","0.45","9:25:02 PM",432.7588,2025-05-29 21:25:02,21:25:02,432.7588,1
"428","0","59.0035","0.0047","-0.0197","65.9218","0","7.5124","65.0281","91.9784","0.0417","0","0.1268","-0.9619","-0.2118","-2.6931","1.9603","9.4976","7.6302","35.9993","0","0.45","9:25:04 PM",35.9993,2025-05-29 21:25:04,21:25:04,35.9993,1
"429","0","58.4257","0.0047","0.0172","66.1657","0.0001","7.5408","65.5874","91.4079","0.0416","0","0.1276","-0.9639","-0.2063","-2.7004","1.9349","9.5047","7.617","0","0","0.45","9:25:04 PM",0,2025-05-29 21:25:04,21:25:04,0,0
"430","0.0001","60.9411","0.0047","0.0822","67.2043","0.0001","7.62","66.016","90.4141","0.042","0","0.1289","-0.963","-0.2057","-2.6851","1.9122","9.5099","7.6224","82.0998","0","0.45","9:25:05 PM",82.0998,2025-05-29 21:25:05,21:25:05,82.0998,1
"431","0","62.2125","0.0047","-0.0412","67.4325","0.0001","7.6284","65.9994","89.9919","0.0422","0","0.1288","-0.9619","-0.2078","-2.6846","1.9561","9.501","7.6234","444.9478","0","0.45","9:25:07 PM",444.9478,2025-05-29 21:25:07,21:25:07,444.9478,1
"432","-0.0001","57.8647","0.0046","-0.0286","67.1485","0.0001","7.596","65.9973","89.9974","0.042","0","0.1283","-0.9622","-0.213","-2.6764","1.9785","9.5046","7.6379","290.7784","0","0.45","9:25:07 PM",290.7784,2025-05-29 21:25:07,21:25:07,290.7784,1
"433","0","58.9046","0.0046","-0.0231","67.0784","0.0001","7.598","66.0004","89.9919","0.0419","0","0.1283","-0.9617","-0.208","-2.6806","1.9517","9.5038","7.6259","0","0","0.45","9:25:08 PM",0,2025-05-29 21:25:08,21:25:08,0,0
"434","0.0001","59.7717","0.0046","0.1275","67.7695","0.0001","7.5718","66.5379","89.9963","0.042","0","0.1282","-0.9647","-0.2023","-2.668","1.9147","9.512","7.618","0","0","0.45","9:25:09 PM",0,2025-05-29 21:25:09,21:25:09,0,0
"435","0.0001","64.4123","0.0046","-0.0212","67.6839","0.0001","7.5076","67.0121","89.9997","0.0424","0","0.1271","-0.9645","-0.2029","-2.6637","1.9402","9.5042","7.6226","260.0785","0","0.45","9:25:11 PM",260.0785,2025-05-29 21:25:11,21:25:11,260.0785,1
"436","0","59.1839","0.0046","-0.0411","67.2872","0.0001","7.5707","66.9996","89.9896","0.0423","0","0.1279","-0.9626","-0.2096","-2.683","1.9749","9.5005","7.6258","444.9478","0","0.45","9:25:11 PM",444.9478,2025-05-29 21:25:11,21:25:11,444.9478,1
"437","-0.0001","58.285","0.0046","-0.0313","66.7764","0","7.5445","67.0038","89.4604","0.0421","0","0.1274","-0.9622","-0.2126","-2.6763","1.9815","9.5066","7.6371","112.7993","0","0.45","9:25:12 PM",112.7993,2025-05-29 21:25:12,21:25:12,112.7993,1
"438","0","59.5155","0.0046","-0.0022","66.2701","0.0001","7.5595","66.9996","88.9758","0.042","0","0.1278","-0.963","-0.2058","-2.6847","1.9362","9.5052","7.6158","0","0","0.45","9:25:14 PM",0,2025-05-29 21:25:14,21:25:14,0,0
"439","0.0001","59.3942","0.0046","0.1027","66.8215","0","7.5659","67.0017","89.5016","0.0423","0","0.128","-0.9635","-0.2026","-2.6672","1.9191","9.5115","7.618","10.3065","0","0.45","9:25:15 PM",10.3065,2025-05-29 21:25:15,21:25:15,10.3065,1
"440","0.0001","63.5197","0.0046","-0.0506","66.8061","0","7.5885","67.0017","90.0019","0.0425","0","0.1283","-0.9635","-0.2052","-2.6822","1.9401","9.4991","7.6178","427.7516","0","0.45","9:25:15 PM",427.7516,2025-05-29 21:25:15,21:25:15,427.7516,1
"441","-0.0001","59.062","0.0046","-0.0375","66.1192","0","7.5442","67.0017","90.0019","0.0424","0","0.1274","-0.9621","-0.21","-2.6871","1.9659","9.5031","7.6285","379.768","0","0.45","9:25:16 PM",379.768,2025-05-29 21:25:16,21:25:16,379.768,1
"442","-0.0001","59.1667","0.0045","-0.0294","65.2353","0","7.5291","67.0017","90.0019","0.0422","0","0.1273","-0.9633","-0.2113","-2.677","1.9599","9.51","7.635","0","0","0.45","9:25:18 PM",0,2025-05-29 21:25:18,21:25:18,0,0
"443","0","58.6422","0.0046","0.0334","65.219","0.0001","7.5417","67.0183","89.9996","0.0422","0","0.1278","-0.9652","-0.2037","-2.6894","1.9295","9.5161","7.6099","0","0","0.45","9:25:18 PM",0,2025-05-29 21:25:18,21:25:18,0,0
"444","0.0001","59.0164","0.0046","0.0878","65.6028","0.0001","7.68","66.5358","90.0019","0.0426","0","0.1299","-0.9635","-0.2023","-2.6641","1.9111","9.5097","7.6178","171.0889","0","0.45","9:25:20 PM",171.0889,2025-05-29 21:25:20,21:25:20,171.0889,1
"445","0","63.2508","0.0046","-0.0486","66.0294","0.0001","7.5188","66.0108","90.0041","0.0428","0","0.1271","-0.9628","-0.2074","-2.6877","1.9581","9.4904","7.6168","444.9478","0","0.45","9:25:20 PM",444.9478,2025-05-29 21:25:20,21:25:20,444.9478,1
"446","-0.0001","58.8535","0.0045","-0.0366","65.5649","0.0001","7.6158","65.9962","90.0019","0.0425","0","0.1289","-0.9642","-0.2106","-2.6738","1.9698","9.5092","7.6248","201.7889","0","0.45","9:25:21 PM",201.7889,2025-05-29 21:25:21,21:25:21,201.7889,1
"447","-0.0001","57.8434","0.0045","-0.0298","65.5594","0.0001","7.5333","65.9973","90.0019","0.0424","0","0.1274","-0.9635","-0.2102","-2.6717","1.9757","9.512","7.6383","0","0","0.45","9:25:23 PM",0,2025-05-29 21:25:23,21:25:23,0,0
"448","0","58.4306","0.0045","-0.0132","65.8003","0.0001","7.4499","65.9962","90.0019","0.0422","0","0.1262","-0.9644","-0.2067","-2.6776","1.9577","9.5064","7.6192","0","0","0.45","9:25:23 PM",0,2025-05-29 21:25:23,21:25:23,0,0
"449","0.0001","59.3352","0.0045","0.1875","66.8236","0.0001","7.5821","65.9952","90.0019","0.0424","0","0.1282","-0.9633","-0.2029","-2.6632","1.9268","9.5132","7.619","349.0686","0","0.45","9:25:24 PM",349.0686,2025-05-29 21:25:24,21:25:24,349.0686,1
"450","0.0001","63.2391","0.0045","-0.0555","67.318","0.0001","7.6058","65.9962","90.0019","0.0429","0","0.1286","-0.9626","-0.2025","-2.6771","1.9375","9.522","7.6212","432.7583","0","0.45","9:25:26 PM",432.7583,2025-05-29 21:25:26,21:25:26,432.7583,1
"451","0","58.4172","0.0044","-0.0469","67.1678","0.0001","7.5322","65.9952","90.0019","0.0427","0","0.1273","-0.9631","-0.2073","-2.6776","1.9665","9.4923","7.619","35.9993","0","0.45","9:25:26 PM",35.9993,2025-05-29 21:25:26,21:25:26,35.9993,1
"452","-0.0001","58.339","0.0045","-0.0367","66.9895","0.0001","7.4231","66.0087","90.0019","0.0426","0","0.1256","-0.9636","-0.2073","-2.6885","1.9627","9.4923","7.6256","0","0","0.45","9:25:27 PM",0,2025-05-29 21:25:27,21:25:27,0,0
"453","0","58.3354","0.0045","-0.0141","66.3393","0.0001","7.5347","65.9734","90.0019","0.0425","0","0.1274","-0.9632","-0.2054","-2.6942","1.942","9.5076","7.6167","82.0998","0","0.45","9:25:28 PM",82.0998,2025-05-29 21:25:28,21:25:28,82.0998,1
"454","0.0001","59.2805","0.0045","0.1565","67.0252","0.0001","7.6131","66.3968","90.0019","0.0428","0","0.1289","-0.9638","-0.2018","-2.674","1.9068","9.5168","7.6158","444.9478","0","0.45","9:25:30 PM",444.9478,2025-05-29 21:25:30,21:25:30,444.9478,1
"455","0.0001","64.5439","0.0045","-0.0202","67.6967","0.0001","7.5997","66.9674","90.0019","0.0432","0","0.1286","-0.9637","-0.2012","-2.663","1.9279","9.5006","7.6192","290.7784","0","0.45","9:25:30 PM",290.7784,2025-05-29 21:25:30,21:25:30,290.7784,1
"456","0","58.7813","0.0045","-0.0536","67.4296","0.0001","7.4396","67.0162","90.0019","0.0429","0","0.1257","-0.9633","-0.2053","-2.677","1.9704","9.4992","7.6224","0","0","0.45","9:25:31 PM",0,2025-05-29 21:25:31,21:25:31,0,0
"457","-0.0001","57.9375","0.0045","-0.0452","67.1713","0.0001","7.533","67.0048","90.0019","0.0427","0","0.1274","-0.9633","-0.2081","-2.6761","1.9622","9.4999","7.6234","0","0","0.45","9:25:32 PM",0,2025-05-29 21:25:32,21:25:32,0,0
"458","0","58.2408","0.0045","-0.0342","66.2377","0.0002","7.4594","67.011","90.0019","0.0425","0","0.1261","-0.9631","-0.21","-2.7005","1.945","9.498","7.6155","260.079","0","0.45","9:25:34 PM",260.079,2025-05-29 21:25:34,21:25:34,260.079,1
"459","0","58.4687","0.0045","0.0111","66.1745","0.0002","7.5079","67.0038","90.0019","0.0425","0","0.1272","-0.9647","-0.2046","-2.6919","1.9303","9.5123","7.6101","444.9478","0","0.45","9:25:34 PM",444.9478,2025-05-29 21:25:34,21:25:34,444.9478,1
"460","0.0001","59.9814","0.0045","0.041","66.8035","0.0002","7.4837","67.0089","90.0019","0.0428","0","0.1266","-0.9645","-0.2029","-2.6705","1.8971","9.5205","7.6182","112.7993","0","0.45","9:25:35 PM",112.7993,2025-05-29 21:25:35,21:25:35,112.7993,1
"461","0","61.4035","0.0044","-0.0428","66.6676","0.0002","7.5612","67.011","90.0019","0.0429","0","0.1277","-0.9616","-0.2058","-2.6836","1.9695","9.498","7.6224","0","0","0.45","9:25:37 PM",0,2025-05-29 21:25:37,21:25:37,0,0
"462","-0.0001","57.2358","0.0043","-0.0321","66.2815","0.0002","7.5093","67.0038","89.9896","0.0426","0","0.1271","-0.9639","-0.2059","-2.6771","1.9587","9.5002","7.6236","10.3065","0","0.45","9:25:37 PM",10.3065,2025-05-29 21:25:37,21:25:37,10.3065,1
"463","0","57.7167","0.0043","-0.0245","65.8062","0.0002","7.506","67.0141","89.9952","0.0425","0","0.1268","-0.9623","-0.2104","-2.6925","1.9464","9.5","7.6168","427.7516","0","0.45","9:25:39 PM",427.7516,2025-05-29 21:25:39,21:25:39,427.7516,1
"464","0","58.1773","0.0044","0.0156","66.0853","0.0003","7.5308","66.9965","89.9863","0.0423","0","0.1276","-0.9648","-0.2069","-2.7001","1.9298","9.5047","7.6143","379.768","0","0.45","9:25:39 PM",379.768,2025-05-29 21:25:39,21:25:39,379.768,1
"465","0.0001","59.0834","0.0044","0.122","66.9385","0.0003","7.61","67.039","90.0041","0.0426","0","0.1287","-0.9637","-0.2014","-2.6644","1.9041","9.5214","7.6216","0","0","0.45","9:25:40 PM",0,2025-05-29 21:25:40,21:25:40,0,0
"466","0","63.4039","0.0044","-0.0517","66.5525","0.0002","7.5871","66.6987","89.9551","0.0427","0","0.1285","-0.9645","-0.2024","-2.6853","1.9557","9.5078","7.617","0","0","0.45","9:25:42 PM",0,2025-05-29 21:25:42,21:25:42,0,0
"467","0","58.2863","0.0044","-0.0364","65.7752","0.0002","7.4527","66.0844","90.3072","0.0424","0","0.126","-0.9634","-0.208","-2.69","1.9596","9.4989","7.6215","171.0894","0","0.45","9:25:42 PM",171.0894,2025-05-29 21:25:42,21:25:42,171.0894,1
"468","-0.0001","58.0842","0.0044","-0.0281","65.5698","0.0002","7.4198","65.9713","90.9199","0.0421","0","0.1253","-0.9627","-0.2111","-2.697","1.9525","9.5023","7.6202","444.9478","0","0.45","9:25:43 PM",444.9478,2025-05-29 21:25:43,21:25:43,444.9478,1
"469","0","58.4623","0.0044","-0.024","65.3269","0.0002","7.567","66.0025","91.0447","0.0419","0","0.1278","-0.9622","-0.2066","-2.7174","1.9348","9.4992","7.6081","201.7889","0","0.45","9:25:45 PM",201.7889,2025-05-29 21:25:45,21:25:45,201.7889,1
"470","0","57.965","0.0044","0.0158","65.6382","0.0003","7.6309","65.9869","90.9946","0.0418","0","0.129","-0.9627","-0.2031","-2.6965","1.9131","9.5034","7.6145","0","0","0.45","9:25:45 PM",0,2025-05-29 21:25:45,21:25:45,0,0
"471","0","61.0366","0.0044","-0.0228","66.5921","0.0003","7.6329","65.9952","91.0581","0.042","0","0.1291","-0.9633","-0.2057","-2.7024","1.9279","9.5147","7.6111","0","0","0.45","9:25:46 PM",0,2025-05-29 21:25:46,21:25:46,0,0
"472","0","57.9734","0.0043","-0.0188","65.9454","0.0003","7.6178","65.989","90.7383","0.0418","0","0.1288","-0.9629","-0.21","-2.7017","1.9418","9.4969","7.6178","349.0686","0","0.45","9:25:47 PM",349.0686,2025-05-29 21:25:47,21:25:47,349.0686,1
"473","0","58.7886","0.0043","-0.0121","65.57","0.0003","7.6805","66.0014","90.1144","0.0417","0","0.1298","-0.9625","-0.212","-2.7114","1.938","9.4991","7.6123","432.7583","0","0.45","9:25:49 PM",432.7583,2025-05-29 21:25:49,21:25:49,432.7583,1
"474","0","58.2101","0.0043","0.0231","65.6944","0.0003","7.6301","66.0014","89.9651","0.0416","0","0.129","-0.963","-0.2055","-2.7024","1.9061","9.5177","7.6101","35.9993","0","0.45","9:25:49 PM",35.9993,2025-05-29 21:25:49,21:25:49,35.9993,1
"475","0.0001","59.7719","0.0043","0.085","66.3391","0.0003","7.6892","66.0014","89.9997","0.0418","0","0.1299","-0.9624","-0.2048","-2.6768","1.9008","9.5114","7.6168","0","0","0.45","9:25:50 PM",0,2025-05-29 21:25:50,21:25:50,0,0
"476","0","62.7991","0.0043","-0.0362","66.6714","0.0003","7.644","66.0014","89.9841","0.0419","0","0.1292","-0.9629","-0.2059","-2.6826","1.9567","9.5124","7.62","82.0998","0","0.45","9:25:51 PM",82.0998,2025-05-29 21:25:51,21:25:51,82.0998,1
"477","-0.0001","58.09","0.0044","-0.0256","65.923","0.0003","7.5341","66.0014","89.9963","0.0417","0","0.1272","-0.9622","-0.2098","-2.6826","1.967","9.4926","7.6234","444.9478","0","0.45","9:25:53 PM",444.9478,2025-05-29 21:25:53,21:25:53,444.9478,1
"478","-0.0001","57.601","0.0044","-0.0202","65.6567","0.0003","7.4641","66.0014","89.9885","0.0415","0","0.1261","-0.9622","-0.2113","-2.6914","1.9514","9.4967","7.619","290.7779","0","0.45","9:25:54 PM",290.7779,2025-05-29 21:25:54,21:25:54,290.7779,1
"479","0","59.1521","0.0043","0.0169","66.0793","0.0003","7.5735","65.9879","90.013","0.0415","0","0.1283","-0.9653","-0.2039","-2.6878","1.9132","9.5095","7.6099","0","0","0.45","9:25:54 PM",0,2025-05-29 21:25:54,21:25:54,0,0
"480","0.0001","60.1015","0.0044","0.0893","66.3627","0.0003","7.6373","65.9962","90.003","0.0417","0","0.1293","-0.9641","-0.2022","-2.6516","1.8929","9.5301","7.6168","0","0","0.45","9:25:56 PM",0,2025-05-29 21:25:56,21:25:56,0,0
"481","0","63.4177","0.0044","-0.0402","67.0341","0.0002","7.5829","65.9827","90.0164","0.0418","0","0.1282","-0.9634","-0.2048","-2.6749","1.9537","9.5012","7.6221","260.079","0","0.45","9:25:56 PM",260.079,2025-05-29 21:25:56,21:25:56,260.079,1
"482","-0.0001","58.2397","0.0044","-0.0294","66.3552","0.0002","7.5562","66.0045","90.0086","0.0416","0","0.1277","-0.9623","-0.2145","-2.6654","1.9867","9.497","7.6379","444.9478","0","0.45","9:25:58 PM",444.9478,2025-05-29 21:25:58,21:25:58,444.9478,1
"483","-0.0001","58.0969","0.0044","-0.0174","66.7712","0.0002","7.6072","65.9568","90.0364","0.0414","0","0.1286","-0.9633","-0.2121","-2.6624","1.9936","9.501","7.6463","112.7993","0","0.45","9:25:58 PM",112.7993,2025-05-29 21:25:58,21:25:58,112.7993,1
"484","0.0001","60.1326","0.0044","0.1985","67.0423","0.0002","7.5857","66.2058","89.8091","0.0414","0","0.1283","-0.9638","-0.2041","-2.6692","1.9287","9.5153","7.62","0","0","0.45","9:25:59 PM",0,2025-05-29 21:25:59,21:25:59,0,0
"485","0.0001","65.7506","0.0044","0.0181","67.5946","0.0002","7.627","66.8533","89.1262","0.0417","0","0.129","-0.9637","-0.1989","-2.6521","1.9295","9.5181","7.6291","10.3065","0","0.45","9:26:01 PM",10.3065,2025-05-29 21:26:01,21:26:01,10.3065,1
"486","0","60.2003","0.0044","-0.0661","67.6542","0.0002","7.5378","67.0442","89.0036","0.0414","0","0.1276","-0.9645","-0.2063","-2.6703","1.9904","9.5026","7.6394","427.7516","0","0.475","9:26:01 PM",427.7516,2025-05-29 21:26:01,21:26:01,427.7516,1
"487","-0.0001","58.0335","0.0044","-0.0504","67.4195","0.0002","7.5168","66.9488","88.8187","0.0411","0","0.1268","-0.9614","-0.2135","-2.6369","2.0074","9.5065","7.6584","379.7675","0","0.5","9:26:02 PM",379.7675,2025-05-29 21:26:02,21:26:02,379.7675,1
"488","-0.0001","58.6958","0.0043","-0.0405","67.1594","0.0002","7.497","67.0006","88.7774","0.0408","0","0.1267","-0.9626","-0.2126","-2.6319","2.0127","9.5034","7.6629","0","0","0.5","9:26:04 PM",0,2025-05-29 21:26:04,21:26:04,0,0
"489","0","58.848","0.0044","0.0752","67.4516","0.0002","7.5871","66.9975","89.0348","0.0406","0","0.1285","-0.9641","-0.2034","-2.6701","1.9274","9.516","7.6133","0","0","0.5","9:26:04 PM",0,2025-05-29 21:26:04,21:26:04,0,0
"490","0.0001","61.797","0.0044","-0.0051","68.164","0.0002","7.6884","67.0048","88.978","0.0411","0","0.1302","-0.9645","-0.2036","-2.6635","1.9221","9.4946","7.6226","189.3295","0","0.5","9:26:05 PM",189.3295,2025-05-29 21:26:05,21:26:05,189.3295,1
"491","0","60.4132","0.0044","-0.0713","68.0579","0.0002","7.6005","66.9747","89.0125","0.0409","0","0.1281","-0.9605","-0.2141","-2.7614","1.9535","9.4842","7.6066","499.8069","0","0.5","9:26:06 PM",499.8069,2025-05-29 21:26:06,21:26:06,499.8069,1
"492","0","58.6726","0.0044","-0.038","67.6549","0.0002","7.5902","67.1573","88.9914","0.0403","0","0.1281","-0.9611","-0.2167","-2.7411","1.9725","9.4822","7.6101","222.7066","0","0.5","9:26:08 PM",222.7066,2025-05-29 21:26:08,21:26:08,222.7066,1
"493","0","58.0875","0.0043","-0.0292","67.4045","0.0002","7.6303","67.8131","89.0148","0.04","0","0.1289","-0.962","-0.2094","-2.6937","1.9569","9.4964","7.6135","0","0","0.5","9:26:08 PM",0,2025-05-29 21:26:08,21:26:08,0,0
"494","0","58.9041","0.0044","0.0635","67.408","0.0002","7.6354","68.0434","89.0014","0.0401","0","0.1292","-0.9638","-0.2028","-2.683","1.9148","9.5062","7.6087","0","0","0.5","9:26:09 PM",0,2025-05-29 21:26:09,21:26:09,0,0
"495","0.0001","62.8673","0.0044","0.0079","67.7123","0.0002","7.6699","68.0341","88.988","0.0406","0","0.1296","-0.9623","-0.2055","-2.6895","1.9209","9.5025","7.6111","389.2527","0","0.5","9:26:10 PM",389.2527,2025-05-29 21:26:10,21:26:10,389.2527,1
"496","0","60.0016","0.0044","-0.0369","67.4436","0.0002","7.6069","67.892","88.9958","0.0405","0","0.1282","-0.9599","-0.2137","-2.7797","1.9581","9.4834","7.602","485.0499","0","0.5","9:26:12 PM",485.0499,2025-05-29 21:26:12,21:26:12,485.0499,1
"497","-0.0001","58.3963","0.0044","-0.0303","66.3013","0.0002","7.5838","67.2393","88.9836","0.0403","0","0.1282","-0.9631","-0.2146","-2.715","1.9557","9.4881","7.6148","37.5409","0","0.5","9:26:13 PM",37.5409,2025-05-29 21:26:13,21:26:13,37.5409,1
"498","0","57.4208","0.0045","-0.0218","65.9229","0.0002","7.6206","66.9674","88.9992","0.0401","0","0.1289","-0.9635","-0.209","-2.71","1.9394","9.4941","7.6101","0","0","0.5","9:26:13 PM",0,2025-05-29 21:26:13,21:26:13,0,0
"499","0","60.2833","0.0045","0.0683","65.9871","0.0003","7.6588","67.0048","88.9524","0.04","0","0.1297","-0.9644","-0.2038","-2.6869","1.9055","9.5118","7.6091","89.3681","0","0.5","9:26:15 PM",89.3681,2025-05-29 21:26:15,21:26:15,89.3681,1
"500","0.0001","64.4032","0.0046","0.005","66.5125","0.0003","7.6574","66.984","89.0983","0.0403","0","0.1295","-0.9637","-0.2042","-2.6839","1.9365","9.4949","7.6124","499.8069","0","0.5","9:26:15 PM",499.8069,2025-05-29 21:26:15,21:26:15,499.8069,1
"501","0","58.7675","0.0046","-0.0331","66.2995","0.0002","7.5905","66.9965","89.7189","0.0401","0","0.1283","-0.9628","-0.2139","-2.7424","1.9618","9.4871","7.6113","322.668","0","0.5","9:26:17 PM",322.668,2025-05-29 21:26:17,21:26:17,322.668,1
